0
Diameter:	   7.85
   1.00
Area:	  48.3982
GaugeLength:	  50.00
2009-1-1
aco temp 
001
DataNumber:	1641
index	Load(kN)	Defor(mm)	Stroke(mm)	Time(s)
    0	  0.0000	  0.0000	   0.000	   0.000
    1	  0.0000	  0.0000	   0.000	   0.055
    2	  0.0000	  0.0000	   0.000	   0.115
    3	  0.0000	  0.0000	   0.000	   0.175
    4	  0.0000	  0.0050	   0.005	   0.235
    5	  0.0000	  0.0088	   0.009	   0.295
    6	  0.0000	  0.0137	   0.014	   0.355
    7	  0.0000	  0.0187	   0.019	   0.415
    8	  0.0000	  0.0237	   0.024	   0.475
    9	  0.0000	  0.0287	   0.029	   0.535
   10	  0.0000	  0.0337	   0.034	   0.595
   11	  0.0000	  0.0388	   0.039	   0.655
   12	  0.0400	  0.0437	   0.044	   0.715
   13	  0.1000	  0.0487	   0.049	   0.775
   14	  0.1400	  0.0537	   0.054	   0.835
   15	  0.1600	  0.0587	   0.059	   0.895
   16	  0.1600	  0.0637	   0.064	   0.955
   17	  0.1600	  0.0688	   0.069	   1.015
   18	  0.1600	  0.0737	   0.074	   1.075
   19	  0.1600	  0.0787	   0.079	   1.135
   20	  0.1600	  0.0837	   0.084	   1.195
   21	  0.1600	  0.0887	   0.089	   1.255
   22	  0.1600	  0.0938	   0.094	   1.315
   23	  0.1600	  0.0987	   0.099	   1.375
   24	  0.1600	  0.1037	   0.104	   1.435
   25	  0.1600	  0.1088	   0.109	   1.495
   26	  0.1600	  0.1137	   0.114	   1.555
   27	  0.1600	  0.1187	   0.119	   1.615
   28	  0.1600	  0.1237	   0.124	   1.675
   29	  0.1600	  0.1287	   0.129	   1.735
   30	  0.1800	  0.1337	   0.134	   1.795
   31	  0.2400	  0.1388	   0.139	   1.855
   32	  0.3000	  0.1437	   0.144	   1.915
   33	  0.3600	  0.1487	   0.149	   1.975
   34	  0.4200	  0.1538	   0.154	   2.035
   35	  0.5000	  0.1587	   0.159	   2.095
   36	  0.5800	  0.1637	   0.164	   2.155
   37	  0.6400	  0.1688	   0.169	   2.215
   38	  0.7000	  0.1737	   0.174	   2.275
   39	  0.7600	  0.1787	   0.179	   2.335
   40	  0.8200	  0.1837	   0.184	   2.395
   41	  0.8400	  0.1887	   0.189	   2.455
   42	  0.8800	  0.1937	   0.194	   2.515
   43	  0.9200	  0.1987	   0.199	   2.575
   44	  0.9400	  0.2037	   0.204	   2.635
   45	  0.9800	  0.2087	   0.209	   2.695
   46	  1.0000	  0.2137	   0.214	   2.755
   47	  1.0200	  0.2188	   0.219	   2.815
   48	  1.0400	  0.2237	   0.224	   2.875
   49	  1.0400	  0.2287	   0.229	   2.935
   50	  1.0600	  0.2338	   0.234	   2.995
   51	  1.0600	  0.2387	   0.239	   3.055
   52	  1.0800	  0.2437	   0.244	   3.115
   53	  1.0800	  0.2488	   0.249	   3.175
   54	  1.1000	  0.2537	   0.254	   3.235
   55	  1.1000	  0.2587	   0.259	   3.295
   56	  1.1200	  0.2637	   0.264	   3.355
   57	  1.1200	  0.2687	   0.269	   3.415
   58	  1.1200	  0.2738	   0.274	   3.475
   59	  1.1400	  0.2788	   0.279	   3.535
   60	  1.1400	  0.2837	   0.284	   3.595
   61	  1.1400	  0.2887	   0.289	   3.655
   62	  1.1600	  0.2937	   0.294	   3.715
   63	  1.1600	  0.2987	   0.299	   3.775
   64	  1.1800	  0.3037	   0.304	   3.835
   65	  1.1800	  0.3088	   0.309	   3.895
   66	  1.1800	  0.3137	   0.314	   3.955
   67	  1.2000	  0.3187	   0.319	   4.015
   68	  1.2000	  0.3237	   0.324	   4.075
   69	  1.2000	  0.3287	   0.329	   4.135
   70	  1.2200	  0.3337	   0.334	   4.195
   71	  1.2200	  0.3388	   0.339	   4.255
   72	  1.2200	  0.3438	   0.344	   4.315
   73	  1.2400	  0.3487	   0.349	   4.375
   74	  1.2400	  0.3537	   0.354	   4.435
   75	  1.2400	  0.3587	   0.359	   4.495
   76	  1.2600	  0.3625	   0.362	   4.555
   77	  1.2600	  0.3688	   0.369	   4.615
   78	  1.2600	  0.3725	   0.373	   4.675
   79	  1.2800	  0.3775	   0.377	   4.735
   80	  1.2800	  0.3825	   0.382	   4.795
   81	  1.2800	  0.3887	   0.389	   4.855
   82	  1.2800	  0.3925	   0.392	   4.915
   83	  1.3000	  0.3987	   0.399	   4.975
   84	  1.3000	  0.4025	   0.403	   5.035
   85	  1.3000	  0.4075	   0.407	   5.095
   86	  1.3200	  0.4137	   0.414	   5.155
   87	  1.3200	  0.4175	   0.417	   5.215
   88	  1.3200	  0.4237	   0.424	   5.275
   89	  1.3400	  0.4287	   0.429	   5.335
   90	  1.3400	  0.4338	   0.434	   5.395
   91	  1.3400	  0.4387	   0.439	   5.455
   92	  1.3600	  0.4437	   0.444	   5.515
   93	  1.3600	  0.4487	   0.449	   5.575
   94	  1.3600	  0.4525	   0.452	   5.635
   95	  1.3600	  0.4587	   0.459	   5.695
   96	  1.3800	  0.4625	   0.462	   5.755
   97	  1.3800	  0.4688	   0.469	   5.815
   98	  1.3800	  0.4725	   0.472	   5.875
   99	  1.4000	  0.4787	   0.479	   5.935
  100	  1.4000	  0.4825	   0.482	   5.995
  101	  1.4000	  0.4875	   0.487	   6.055
  102	  1.4200	  0.4925	   0.492	   6.115
  103	  1.4200	  0.4975	   0.498	   6.175
  104	  1.4200	  0.5025	   0.502	   6.235
  105	  1.4200	  0.5075	   0.507	   6.295
  106	  1.4400	  0.5125	   0.512	   6.355
  107	  1.4400	  0.5175	   0.517	   6.415
  108	  1.4400	  0.5225	   0.522	   6.475
  109	  1.4600	  0.5275	   0.527	   6.535
  110	  1.4600	  0.5325	   0.532	   6.595
  111	  1.4600	  0.5375	   0.537	   6.655
  112	  1.4600	  0.5425	   0.542	   6.715
  113	  1.4600	  0.5475	   0.548	   6.775
  114	  1.4600	  0.5525	   0.553	   6.835
  115	  1.4800	  0.5575	   0.558	   6.895
  116	  1.4800	  0.5625	   0.562	   6.955
  117	  1.4800	  0.5675	   0.567	   7.015
  118	  1.4800	  0.5725	   0.572	   7.075
  119	  1.5000	  0.5775	   0.577	   7.135
  120	  1.5000	  0.5825	   0.582	   7.195
  121	  1.5000	  0.5875	   0.587	   7.255
  122	  1.5000	  0.5925	   0.592	   7.315
  123	  1.5000	  0.5975	   0.597	   7.375
  124	  1.5200	  0.6025	   0.602	   7.435
  125	  1.5200	  0.6075	   0.607	   7.495
  126	  1.5200	  0.6125	   0.613	   7.555
  127	  1.5200	  0.6175	   0.618	   7.615
  128	  1.5400	  0.6225	   0.623	   7.675
  129	  1.5400	  0.6275	   0.627	   7.735
  130	  1.5400	  0.6325	   0.632	   7.795
  131	  1.5600	  0.6375	   0.637	   7.855
  132	  1.5600	  0.6425	   0.642	   7.915
  133	  1.5600	  0.6475	   0.647	   7.975
  134	  1.5600	  0.6525	   0.652	   8.035
  135	  1.5800	  0.6575	   0.657	   8.095
  136	  1.5800	  0.6625	   0.662	   8.155
  137	  1.5800	  0.6675	   0.667	   8.215
  138	  1.5800	  0.6725	   0.673	   8.275
  139	  1.5800	  0.6775	   0.678	   8.335
  140	  1.5800	  0.6825	   0.683	   8.395
  141	  1.6000	  0.6875	   0.688	   8.455
  142	  1.6000	  0.6925	   0.692	   8.515
  143	  1.6000	  0.6975	   0.697	   8.575
  144	  1.6000	  0.7025	   0.702	   8.635
  145	  1.6200	  0.7075	   0.707	   8.695
  146	  1.6200	  0.7125	   0.712	   8.755
  147	  1.6200	  0.7175	   0.717	   8.815
  148	  1.6200	  0.7225	   0.722	   8.875
  149	  1.6400	  0.7275	   0.727	   8.935
  150	  1.6400	  0.7325	   0.732	   8.995
  151	  1.6400	  0.7375	   0.738	   9.055
  152	  1.6400	  0.7425	   0.743	   9.115
  153	  1.6400	  0.7475	   0.748	   9.175
  154	  1.6400	  0.7525	   0.752	   9.235
  155	  1.6400	  0.7575	   0.757	   9.295
  156	  1.6600	  0.7612	   0.761	   9.355
  157	  1.6600	  0.7662	   0.766	   9.415
  158	  1.6600	  0.7713	   0.771	   9.475
  159	  1.6600	  0.7763	   0.776	   9.535
  160	  1.6600	  0.7812	   0.781	   9.595
  161	  1.6800	  0.7862	   0.786	   9.655
  162	  1.6800	  0.7912	   0.791	   9.715
  163	  1.6800	  0.7962	   0.796	   9.775
  164	  1.6800	  0.8012	   0.801	   9.835
  165	  1.7000	  0.8062	   0.806	   9.895
  166	  1.7000	  0.8112	   0.811	   9.955
  167	  1.7000	  0.8162	   0.816	  10.015
  168	  1.7200	  0.8212	   0.821	  10.075
  169	  1.7200	  0.8262	   0.826	  10.135
  170	  1.7200	  0.8312	   0.831	  10.195
  171	  1.7200	  0.8363	   0.836	  10.255
  172	  1.7200	  0.8413	   0.841	  10.315
  173	  1.7400	  0.8462	   0.846	  10.375
  174	  1.7400	  0.8512	   0.851	  10.435
  175	  1.7400	  0.8562	   0.856	  10.495
  176	  1.7400	  0.8612	   0.861	  10.555
  177	  1.7600	  0.8675	   0.868	  10.615
  178	  1.7600	  0.8725	   0.873	  10.675
  179	  1.7600	  0.8775	   0.877	  10.735
  180	  1.7800	  0.8825	   0.882	  10.795
  181	  1.7800	  0.8875	   0.887	  10.855
  182	  1.7800	  0.8912	   0.891	  10.915
  183	  1.7800	  0.8975	   0.897	  10.975
  184	  1.8000	  0.9013	   0.901	  11.035
  185	  1.8000	  0.9062	   0.906	  11.095
  186	  1.8000	  0.9112	   0.911	  11.155
  187	  1.8000	  0.9162	   0.916	  11.215
  188	  1.8200	  0.9212	   0.921	  11.275
  189	  1.8200	  0.9262	   0.926	  11.335
  190	  1.8200	  0.9312	   0.931	  11.395
  191	  1.8200	  0.9362	   0.936	  11.455
  192	  1.8400	  0.9412	   0.941	  11.515
  193	  1.8400	  0.9462	   0.946	  11.575
  194	  1.8400	  0.9512	   0.951	  11.635
  195	  1.8400	  0.9562	   0.956	  11.695
  196	  1.8600	  0.9613	   0.961	  11.755
  197	  1.8600	  0.9663	   0.966	  11.815
  198	  1.8600	  0.9712	   0.971	  11.875
  199	  1.8600	  0.9762	   0.976	  11.935
  200	  1.8800	  0.9812	   0.981	  11.995
  201	  1.8800	  0.9862	   0.986	  12.055
  202	  1.8800	  0.9912	   0.991	  12.115
  203	  1.8800	  0.9962	   0.996	  12.175
  204	  1.9000	  1.0013	   1.001	  12.235
  205	  1.9000	  1.0063	   1.006	  12.295
  206	  1.9000	  1.0113	   1.011	  12.355
  207	  1.9000	  1.0163	   1.016	  12.415
  208	  1.9200	  1.0213	   1.021	  12.475
  209	  1.9200	  1.0263	   1.026	  12.535
  210	  1.9400	  1.0312	   1.031	  12.595
  211	  1.9400	  1.0362	   1.036	  12.655
  212	  1.9400	  1.0412	   1.041	  12.715
  213	  1.9400	  1.0462	   1.046	  12.775
  214	  1.9600	  1.0512	   1.051	  12.835
  215	  1.9600	  1.0562	   1.056	  12.895
  216	  1.9800	  1.0612	   1.061	  12.955
  217	  1.9800	  1.0662	   1.066	  13.015
  218	  1.9800	  1.0712	   1.071	  13.075
  219	  2.0000	  1.0762	   1.076	  13.135
  220	  2.0000	  1.0812	   1.081	  13.195
  221	  2.0000	  1.0862	   1.086	  13.255
  222	  2.0200	  1.0912	   1.091	  13.315
  223	  2.0200	  1.0962	   1.096	  13.375
  224	  2.0200	  1.1012	   1.101	  13.435
  225	  2.0400	  1.1062	   1.106	  13.495
  226	  2.0400	  1.1112	   1.111	  13.555
  227	  2.0400	  1.1162	   1.116	  13.615
  228	  2.0600	  1.1213	   1.121	  13.675
  229	  2.0600	  1.1263	   1.126	  13.735
  230	  2.0600	  1.1313	   1.131	  13.795
  231	  2.0800	  1.1363	   1.136	  13.855
  232	  2.0800	  1.1413	   1.141	  13.915
  233	  2.0800	  1.1463	   1.146	  13.975
  234	  2.1000	  1.1513	   1.151	  14.035
  235	  2.1000	  1.1562	   1.156	  14.095
  236	  2.1200	  1.1612	   1.161	  14.155
  237	  2.1200	  1.1662	   1.166	  14.215
  238	  2.1200	  1.1712	   1.171	  14.275
  239	  2.1400	  1.1762	   1.176	  14.335
  240	  2.1400	  1.1812	   1.181	  14.395
  241	  2.1400	  1.1862	   1.186	  14.455
  242	  2.1600	  1.1912	   1.191	  14.515
  243	  2.1600	  1.1962	   1.196	  14.575
  244	  2.1600	  1.2012	   1.201	  14.635
  245	  2.1800	  1.2062	   1.206	  14.695
  246	  2.1800	  1.2112	   1.211	  14.755
  247	  2.1800	  1.2162	   1.216	  14.815
  248	  2.2000	  1.2212	   1.221	  14.875
  249	  2.2000	  1.2262	   1.226	  14.935
  250	  2.2000	  1.2312	   1.231	  14.995
  251	  2.2200	  1.2362	   1.236	  15.055
  252	  2.2200	  1.2412	   1.241	  15.115
  253	  2.2400	  1.2475	   1.247	  15.175
  254	  2.2400	  1.2525	   1.252	  15.235
  255	  2.2400	  1.2575	   1.257	  15.295
  256	  2.2600	  1.2625	   1.262	  15.355
  257	  2.2600	  1.2675	   1.267	  15.415
  258	  2.2600	  1.2725	   1.272	  15.475
  259	  2.2800	  1.2775	   1.277	  15.535
  260	  2.2800	  1.2825	   1.283	  15.595
  261	  2.2800	  1.2875	   1.288	  15.655
  262	  2.3000	  1.2925	   1.293	  15.715
  263	  2.3000	  1.2975	   1.298	  15.775
  264	  2.3000	  1.3025	   1.303	  15.835
  265	  2.3000	  1.3075	   1.308	  15.895
  266	  2.3000	  1.3125	   1.312	  15.955
  267	  2.3200	  1.3175	   1.317	  16.015
  268	  2.3200	  1.3225	   1.322	  16.075
  269	  2.3200	  1.3275	   1.327	  16.135
  270	  2.3400	  1.3325	   1.332	  16.195
  271	  2.3400	  1.3375	   1.337	  16.255
  272	  2.3400	  1.3425	   1.342	  16.315
  273	  2.3600	  1.3475	   1.347	  16.375
  274	  2.3600	  1.3525	   1.352	  16.435
  275	  2.3600	  1.3575	   1.357	  16.495
  276	  2.3800	  1.3612	   1.361	  16.555
  277	  2.3800	  1.3675	   1.367	  16.615
  278	  2.3800	  1.3725	   1.372	  16.675
  279	  2.4000	  1.3775	   1.377	  16.735
  280	  2.4000	  1.3825	   1.382	  16.795
  281	  2.4000	  1.3875	   1.387	  16.855
  282	  2.4200	  1.3925	   1.392	  16.915
  283	  2.4200	  1.3975	   1.397	  16.975
  284	  2.4200	  1.4025	   1.402	  17.035
  285	  2.4400	  1.4075	   1.407	  17.095
  286	  2.4400	  1.4125	   1.413	  17.155
  287	  2.4400	  1.4175	   1.418	  17.215
  288	  2.4400	  1.4225	   1.423	  17.275
  289	  2.4600	  1.4275	   1.428	  17.335
  290	  2.4600	  1.4325	   1.433	  17.395
  291	  2.4800	  1.4375	   1.438	  17.455
  292	  2.4800	  1.4425	   1.442	  17.515
  293	  2.4800	  1.4475	   1.447	  17.575
  294	  2.5000	  1.4525	   1.452	  17.635
  295	  2.5000	  1.4575	   1.457	  17.695
  296	  2.5200	  1.4625	   1.462	  17.755
  297	  2.5200	  1.4675	   1.467	  17.815
  298	  2.5200	  1.4725	   1.472	  17.875
  299	  2.5400	  1.4775	   1.477	  17.935
  300	  2.5400	  1.4825	   1.482	  17.995
  301	  2.5400	  1.4875	   1.487	  18.055
  302	  2.5600	  1.4925	   1.492	  18.115
  303	  2.5600	  1.4975	   1.497	  18.175
  304	  2.5600	  1.5025	   1.502	  18.235
  305	  2.5800	  1.5075	   1.507	  18.295
  306	  2.5800	  1.5125	   1.512	  18.355
  307	  2.5800	  1.5175	   1.517	  18.415
  308	  2.6000	  1.5225	   1.522	  18.475
  309	  2.6000	  1.5275	   1.527	  18.535
  310	  2.6000	  1.5325	   1.532	  18.595
  311	  2.6200	  1.5375	   1.538	  18.655
  312	  2.6200	  1.5425	   1.543	  18.715
  313	  2.6200	  1.5475	   1.548	  18.775
  314	  2.6400	  1.5525	   1.553	  18.835
  315	  2.6400	  1.5575	   1.558	  18.895
  316	  2.6400	  1.5625	   1.562	  18.955
  317	  2.6600	  1.5675	   1.567	  19.015
  318	  2.6600	  1.5725	   1.572	  19.075
  319	  2.6800	  1.5775	   1.577	  19.135
  320	  2.6800	  1.5825	   1.582	  19.195
  321	  2.7000	  1.5875	   1.587	  19.255
  322	  2.7000	  1.5925	   1.592	  19.315
  323	  2.7000	  1.5975	   1.597	  19.375
  324	  2.7200	  1.6025	   1.602	  19.435
  325	  2.7200	  1.6075	   1.607	  19.495
  326	  2.7400	  1.6125	   1.612	  19.555
  327	  2.7400	  1.6175	   1.617	  19.615
  328	  2.7400	  1.6225	   1.622	  19.675
  329	  2.7600	  1.6275	   1.627	  19.735
  330	  2.7600	  1.6325	   1.632	  19.795
  331	  2.7800	  1.6375	   1.637	  19.855
  332	  2.7800	  1.6425	   1.642	  19.915
  333	  2.7800	  1.6475	   1.647	  19.975
  334	  2.8000	  1.6525	   1.652	  20.035
  335	  2.8000	  1.6575	   1.657	  20.095
  336	  2.8000	  1.6625	   1.662	  20.155
  337	  2.8200	  1.6675	   1.668	  20.215
  338	  2.8200	  1.6725	   1.673	  20.275
  339	  2.8400	  1.6775	   1.678	  20.335
  340	  2.8400	  1.6825	   1.683	  20.395
  341	  2.8400	  1.6875	   1.688	  20.455
  342	  2.8600	  1.6925	   1.692	  20.515
  343	  2.8600	  1.6975	   1.697	  20.575
  344	  2.8600	  1.7025	   1.702	  20.635
  345	  2.8800	  1.7075	   1.707	  20.695
  346	  2.8800	  1.7125	   1.712	  20.755
  347	  2.9000	  1.7175	   1.717	  20.815
  348	  2.9000	  1.7225	   1.722	  20.875
  349	  2.9200	  1.7275	   1.727	  20.935
  350	  2.9200	  1.7325	   1.732	  20.995
  351	  2.9200	  1.7375	   1.737	  21.055
  352	  2.9400	  1.7425	   1.742	  21.115
  353	  2.9400	  1.7475	   1.747	  21.175
  354	  2.9600	  1.7525	   1.752	  21.235
  355	  2.9600	  1.7575	   1.757	  21.295
  356	  2.9800	  1.7625	   1.762	  21.355
  357	  2.9800	  1.7675	   1.767	  21.415
  358	  3.0000	  1.7725	   1.772	  21.475
  359	  3.0000	  1.7775	   1.777	  21.535
  360	  3.0200	  1.7825	   1.782	  21.595
  361	  3.0400	  1.7875	   1.787	  21.655
  362	  3.0400	  1.7925	   1.793	  21.715
  363	  3.0600	  1.7975	   1.798	  21.775
  364	  3.0600	  1.8025	   1.803	  21.835
  365	  3.0800	  1.8075	   1.808	  21.895
  366	  3.0800	  1.8125	   1.812	  21.955
  367	  3.1000	  1.8175	   1.817	  22.015
  368	  3.1200	  1.8225	   1.822	  22.075
  369	  3.1200	  1.8275	   1.827	  22.135
  370	  3.1400	  1.8338	   1.834	  22.195
  371	  3.1400	  1.8388	   1.839	  22.255
  372	  3.1600	  1.8438	   1.844	  22.315
  373	  3.1600	  1.8487	   1.849	  22.375
  374	  3.1800	  1.8537	   1.854	  22.435
  375	  3.2000	  1.8587	   1.859	  22.495
  376	  3.2200	  1.8637	   1.864	  22.555
  377	  3.2200	  1.8687	   1.869	  22.615
  378	  3.2400	  1.8737	   1.874	  22.675
  379	  3.2400	  1.8787	   1.879	  22.735
  380	  3.2600	  1.8837	   1.884	  22.795
  381	  3.2800	  1.8887	   1.889	  22.855
  382	  3.2800	  1.8937	   1.894	  22.915
  383	  3.3000	  1.8987	   1.899	  22.975
  384	  3.3200	  1.9037	   1.904	  23.035
  385	  3.3200	  1.9087	   1.909	  23.095
  386	  3.3400	  1.9137	   1.914	  23.155
  387	  3.3600	  1.9187	   1.919	  23.215
  388	  3.3600	  1.9237	   1.924	  23.275
  389	  3.3800	  1.9287	   1.929	  23.335
  390	  3.4000	  1.9337	   1.934	  23.395
  391	  3.4200	  1.9387	   1.939	  23.455
  392	  3.4200	  1.9437	   1.944	  23.515
  393	  3.4400	  1.9487	   1.949	  23.575
  394	  3.4600	  1.9538	   1.954	  23.635
  395	  3.4600	  1.9588	   1.959	  23.695
  396	  3.4800	  1.9638	   1.964	  23.755
  397	  3.5000	  1.9688	   1.969	  23.815
  398	  3.5000	  1.9737	   1.974	  23.875
  399	  3.5200	  1.9787	   1.979	  23.935
  400	  3.5400	  1.9837	   1.984	  23.995
  401	  3.5600	  1.9887	   1.989	  24.055
  402	  3.5600	  1.9937	   1.994	  24.115
  403	  3.5800	  1.9987	   1.999	  24.175
  404	  3.6000	  2.0037	   2.004	  24.235
  405	  3.6200	  2.0087	   2.009	  24.295
  406	  3.6200	  2.0137	   2.014	  24.355
  407	  3.6400	  2.0187	   2.019	  24.415
  408	  3.6600	  2.0238	   2.024	  24.475
  409	  3.6800	  2.0287	   2.029	  24.535
  410	  3.6800	  2.0338	   2.034	  24.595
  411	  3.7000	  2.0387	   2.039	  24.655
  412	  3.7200	  2.0438	   2.044	  24.715
  413	  3.7200	  2.0487	   2.049	  24.775
  414	  3.7400	  2.0538	   2.054	  24.835
  415	  3.7600	  2.0587	   2.059	  24.895
  416	  3.7800	  2.0638	   2.064	  24.955
  417	  3.7800	  2.0687	   2.069	  25.015
  418	  3.8000	  2.0738	   2.074	  25.075
  419	  3.8200	  2.0787	   2.079	  25.135
  420	  3.8400	  2.0838	   2.084	  25.195
  421	  3.8600	  2.0887	   2.089	  25.255
  422	  3.8600	  2.0950	   2.095	  25.315
  423	  3.8800	  2.0987	   2.099	  25.375
  424	  3.9000	  2.1050	   2.105	  25.435
  425	  3.9200	  2.1087	   2.109	  25.495
  426	  3.9400	  2.1150	   2.115	  25.555
  427	  3.9400	  2.1200	   2.120	  25.615
  428	  3.9600	  2.1250	   2.125	  25.675
  429	  3.9800	  2.1300	   2.130	  25.735
  430	  4.0000	  2.1350	   2.135	  25.795
  431	  4.0200	  2.1400	   2.140	  25.855
  432	  4.0200	  2.1450	   2.145	  25.915
  433	  4.0400	  2.1500	   2.150	  25.975
  434	  4.0600	  2.1550	   2.155	  26.035
  435	  4.0800	  2.1600	   2.160	  26.095
  436	  4.1000	  2.1650	   2.165	  26.155
  437	  4.1200	  2.1700	   2.170	  26.215
  438	  4.1200	  2.1750	   2.175	  26.275
  439	  4.1400	  2.1800	   2.180	  26.335
  440	  4.1600	  2.1850	   2.185	  26.395
  441	  4.1800	  2.1900	   2.190	  26.455
  442	  4.2000	  2.1950	   2.195	  26.515
  443	  4.2200	  2.2000	   2.200	  26.575
  444	  4.2400	  2.2050	   2.205	  26.635
  445	  4.2600	  2.2100	   2.210	  26.695
  446	  4.2800	  2.2150	   2.215	  26.755
  447	  4.3000	  2.2200	   2.220	  26.815
  448	  4.3000	  2.2250	   2.225	  26.875
  449	  4.3200	  2.2300	   2.230	  26.935
  450	  4.3400	  2.2350	   2.235	  26.995
  451	  4.3600	  2.2400	   2.240	  27.055
  452	  4.3800	  2.2450	   2.245	  27.115
  453	  4.4000	  2.2500	   2.250	  27.175
  454	  4.4200	  2.2550	   2.255	  27.235
  455	  4.4400	  2.2600	   2.260	  27.295
  456	  4.4600	  2.2650	   2.265	  27.355
  457	  4.4800	  2.2700	   2.270	  27.415
  458	  4.5000	  2.2750	   2.275	  27.475
  459	  4.5200	  2.2800	   2.280	  27.535
  460	  4.5400	  2.2850	   2.285	  27.595
  461	  4.5400	  2.2900	   2.290	  27.655
  462	  4.5600	  2.2950	   2.295	  27.715
  463	  4.5800	  2.3000	   2.300	  27.775
  464	  4.6000	  2.3050	   2.305	  27.835
  465	  4.6200	  2.3100	   2.310	  27.895
  466	  4.6400	  2.3150	   2.315	  27.955
  467	  4.6600	  2.3200	   2.320	  28.015
  468	  4.6800	  2.3250	   2.325	  28.075
  469	  4.7000	  2.3300	   2.330	  28.135
  470	  4.7200	  2.3350	   2.335	  28.195
  471	  4.7400	  2.3400	   2.340	  28.255
  472	  4.7600	  2.3450	   2.345	  28.315
  473	  4.7800	  2.3500	   2.350	  28.375
  474	  4.8000	  2.3550	   2.355	  28.435
  475	  4.8200	  2.3600	   2.360	  28.495
  476	  4.8400	  2.3650	   2.365	  28.555
  477	  4.8600	  2.3700	   2.370	  28.615
  478	  4.8800	  2.3750	   2.375	  28.675
  479	  4.9000	  2.3800	   2.380	  28.735
  480	  4.9200	  2.3850	   2.385	  28.795
  481	  4.9600	  2.3900	   2.390	  28.855
  482	  4.9600	  2.3950	   2.395	  28.915
  483	  5.0000	  2.4000	   2.400	  28.975
  484	  5.0000	  2.4050	   2.405	  29.035
  485	  5.0400	  2.4100	   2.410	  29.095
  486	  5.0400	  2.4150	   2.415	  29.155
  487	  5.0800	  2.4200	   2.420	  29.215
  488	  5.1000	  2.4250	   2.425	  29.275
  489	  5.1200	  2.4300	   2.430	  29.335
  490	  5.1400	  2.4350	   2.435	  29.395
  491	  5.1400	  2.4400	   2.440	  29.455
  492	  5.1600	  2.4450	   2.445	  29.515
  493	  5.1800	  2.4500	   2.450	  29.575
  494	  5.2000	  2.4550	   2.455	  29.635
  495	  5.2400	  2.4600	   2.460	  29.695
  496	  5.2400	  2.4650	   2.465	  29.755
  497	  5.2600	  2.4700	   2.470	  29.815
  498	  5.2800	  2.4750	   2.475	  29.875
  499	  5.3200	  2.4800	   2.480	  29.935
  500	  5.3400	  2.4850	   2.485	  29.995
  501	  5.3600	  2.4900	   2.490	  30.055
  502	  5.3800	  2.4950	   2.495	  30.115
  503	  5.4000	  2.5000	   2.500	  30.175
  504	  5.4200	  2.5050	   2.505	  30.235
  505	  5.4400	  2.5100	   2.510	  30.295
  506	  5.4600	  2.5150	   2.515	  30.355
  507	  5.4800	  2.5200	   2.520	  30.415
  508	  5.5000	  2.5250	   2.525	  30.475
  509	  5.5200	  2.5300	   2.530	  30.535
  510	  5.5400	  2.5350	   2.535	  30.595
  511	  5.5800	  2.5400	   2.540	  30.655
  512	  5.5800	  2.5450	   2.545	  30.715
  513	  5.6200	  2.5500	   2.550	  30.775
  514	  5.6200	  2.5550	   2.555	  30.835
  515	  5.6400	  2.5600	   2.560	  30.895
  516	  5.6800	  2.5650	   2.565	  30.955
  517	  5.7000	  2.5700	   2.570	  31.015
  518	  5.7200	  2.5750	   2.575	  31.075
  519	  5.7400	  2.5800	   2.580	  31.135
  520	  5.7600	  2.5862	   2.586	  31.195
  521	  5.7800	  2.5900	   2.590	  31.255
  522	  5.8000	  2.5963	   2.596	  31.315
  523	  5.8400	  2.6000	   2.600	  31.375
  524	  5.8600	  2.6063	   2.606	  31.435
  525	  5.8800	  2.6100	   2.610	  31.495
  526	  5.9000	  2.6163	   2.616	  31.555
  527	  5.9200	  2.6200	   2.620	  31.615
  528	  5.9400	  2.6263	   2.626	  31.675
  529	  5.9600	  2.6300	   2.630	  31.735
  530	  5.9800	  2.6363	   2.636	  31.795
  531	  6.0200	  2.6400	   2.640	  31.855
  532	  6.0400	  2.6463	   2.646	  31.915
  533	  6.0600	  2.6500	   2.650	  31.975
  534	  6.0800	  2.6562	   2.656	  32.035
  535	  6.1000	  2.6600	   2.660	  32.095
  536	  6.1200	  2.6662	   2.666	  32.155
  537	  6.1600	  2.6700	   2.670	  32.215
  538	  6.1800	  2.6762	   2.676	  32.275
  539	  6.2000	  2.6800	   2.680	  32.335
  540	  6.2200	  2.6862	   2.686	  32.395
  541	  6.2400	  2.6900	   2.690	  32.455
  542	  6.2600	  2.6950	   2.695	  32.515
  543	  6.2800	  2.7000	   2.700	  32.575
  544	  6.3000	  2.7050	   2.705	  32.635
  545	  6.3400	  2.7100	   2.710	  32.695
  546	  6.3600	  2.7162	   2.716	  32.755
  547	  6.3800	  2.7200	   2.720	  32.815
  548	  6.4000	  2.7262	   2.726	  32.875
  549	  6.4200	  2.7300	   2.730	  32.935
  550	  6.4400	  2.7362	   2.736	  32.995
  551	  6.4800	  2.7400	   2.740	  33.055
  552	  6.5000	  2.7462	   2.746	  33.115
  553	  6.5200	  2.7500	   2.750	  33.175
  554	  6.5400	  2.7562	   2.756	  33.235
  555	  6.5600	  2.7600	   2.760	  33.295
  556	  6.6000	  2.7662	   2.766	  33.355
  557	  6.6200	  2.7700	   2.770	  33.415
  558	  6.6400	  2.7762	   2.776	  33.475
  559	  6.6600	  2.7800	   2.780	  33.535
  560	  6.6800	  2.7862	   2.786	  33.595
  561	  6.7200	  2.7900	   2.790	  33.655
  562	  6.7400	  2.7962	   2.796	  33.715
  563	  6.7600	  2.8000	   2.800	  33.775
  564	  6.7800	  2.8062	   2.806	  33.835
  565	  6.8200	  2.8100	   2.810	  33.895
  566	  6.8400	  2.8162	   2.816	  33.955
  567	  6.8600	  2.8200	   2.820	  34.015
  568	  6.8800	  2.8262	   2.826	  34.075
  569	  6.9000	  2.8312	   2.831	  34.135
  570	  6.9400	  2.8362	   2.836	  34.195
  571	  6.9600	  2.8400	   2.840	  34.255
  572	  6.9800	  2.8462	   2.846	  34.315
  573	  7.0200	  2.8500	   2.850	  34.375
  574	  7.0200	  2.8563	   2.856	  34.435
  575	  7.0600	  2.8600	   2.860	  34.495
  576	  7.0800	  2.8663	   2.866	  34.555
  577	  7.1000	  2.8700	   2.870	  34.615
  578	  7.1400	  2.8763	   2.876	  34.675
  579	  7.1600	  2.8800	   2.880	  34.735
  580	  7.1800	  2.8863	   2.886	  34.795
  581	  7.2200	  2.8900	   2.890	  34.855
  582	  7.2400	  2.8963	   2.896	  34.915
  583	  7.2600	  2.9000	   2.900	  34.975
  584	  7.2800	  2.9062	   2.906	  35.035
  585	  7.3200	  2.9100	   2.910	  35.095
  586	  7.3400	  2.9162	   2.916	  35.155
  587	  7.3600	  2.9200	   2.920	  35.215
  588	  7.4000	  2.9262	   2.926	  35.275
  589	  7.4200	  2.9312	   2.931	  35.335
  590	  7.4400	  2.9362	   2.936	  35.395
  591	  7.4800	  2.9412	   2.941	  35.455
  592	  7.5000	  2.9462	   2.946	  35.515
  593	  7.5200	  2.9512	   2.951	  35.575
  594	  7.5600	  2.9562	   2.956	  35.635
  595	  7.5800	  2.9612	   2.961	  35.695
  596	  7.6000	  2.9662	   2.966	  35.755
  597	  7.6400	  2.9712	   2.971	  35.815
  598	  7.6600	  2.9762	   2.976	  35.875
  599	  7.7000	  2.9813	   2.981	  35.935
  600	  7.7200	  2.9862	   2.986	  35.995
  601	  7.7600	  2.9913	   2.991	  36.055
  602	  7.7800	  2.9962	   2.996	  36.115
  603	  7.8200	  3.0013	   3.001	  36.175
  604	  7.8400	  3.0062	   3.006	  36.235
  605	  7.8600	  3.0113	   3.011	  36.295
  606	  7.9000	  3.0162	   3.016	  36.355
  607	  7.9200	  3.0213	   3.021	  36.415
  608	  7.9600	  3.0262	   3.026	  36.475
  609	  7.9800	  3.0312	   3.031	  36.535
  610	  8.0000	  3.0362	   3.036	  36.595
  611	  8.0400	  3.0412	   3.041	  36.655
  612	  8.0600	  3.0462	   3.046	  36.715
  613	  8.1000	  3.0512	   3.051	  36.775
  614	  8.1200	  3.0562	   3.056	  36.835
  615	  8.1400	  3.0612	   3.061	  36.895
  616	  8.1600	  3.0662	   3.066	  36.955
  617	  8.1600	  3.0712	   3.071	  37.015
  618	  8.1800	  3.0762	   3.076	  37.075
  619	  8.2000	  3.0812	   3.081	  37.135
  620	  8.2400	  3.0862	   3.086	  37.195
  621	  8.2600	  3.0912	   3.091	  37.255
  622	  8.3000	  3.0962	   3.096	  37.315
  623	  8.3200	  3.1012	   3.101	  37.375
  624	  8.3600	  3.1063	   3.106	  37.435
  625	  8.4000	  3.1112	   3.111	  37.495
  626	  8.4200	  3.1163	   3.116	  37.555
  627	  8.4600	  3.1212	   3.121	  37.615
  628	  8.4800	  3.1263	   3.126	  37.675
  629	  8.5200	  3.1312	   3.131	  37.735
  630	  8.5600	  3.1363	   3.136	  37.795
  631	  8.5800	  3.1412	   3.141	  37.855
  632	  8.6200	  3.1463	   3.146	  37.915
  633	  8.6400	  3.1512	   3.151	  37.975
  634	  8.6800	  3.1562	   3.156	  38.035
  635	  8.7000	  3.1612	   3.161	  38.095
  636	  8.7400	  3.1662	   3.166	  38.155
  637	  8.7600	  3.1712	   3.171	  38.215
  638	  8.7800	  3.1762	   3.176	  38.275
  639	  8.8200	  3.1812	   3.181	  38.335
  640	  8.8600	  3.1875	   3.188	  38.395
  641	  8.8800	  3.1912	   3.191	  38.455
  642	  8.9200	  3.1975	   3.197	  38.515
  643	  8.9400	  3.2012	   3.201	  38.575
  644	  8.9800	  3.2075	   3.207	  38.635
  645	  9.0200	  3.2125	   3.212	  38.695
  646	  9.0400	  3.2175	   3.217	  38.755
  647	  9.0800	  3.2225	   3.222	  38.815
  648	  9.1200	  3.2275	   3.227	  38.875
  649	  9.1600	  3.2325	   3.232	  38.935
  650	  9.1800	  3.2375	   3.237	  38.995
  651	  9.2200	  3.2425	   3.242	  39.055
  652	  9.2600	  3.2475	   3.247	  39.115
  653	  9.2800	  3.2525	   3.252	  39.175
  654	  9.3200	  3.2575	   3.257	  39.235
  655	  9.3600	  3.2625	   3.262	  39.295
  656	  9.4000	  3.2675	   3.267	  39.355
  657	  9.4200	  3.2725	   3.273	  39.415
  658	  9.4600	  3.2775	   3.277	  39.475
  659	  9.5000	  3.2825	   3.283	  39.535
  660	  9.5200	  3.2875	   3.287	  39.595
  661	  9.5600	  3.2925	   3.293	  39.655
  662	  9.6000	  3.2975	   3.297	  39.715
  663	  9.6200	  3.3025	   3.303	  39.775
  664	  9.6600	  3.3075	   3.307	  39.835
  665	  9.7000	  3.3125	   3.312	  39.895
  666	  9.7200	  3.3175	   3.317	  39.955
  667	  9.7600	  3.3225	   3.322	  40.015
  668	  9.8000	  3.3275	   3.327	  40.075
  669	  9.8400	  3.3325	   3.332	  40.135
  670	  9.8600	  3.3375	   3.337	  40.195
  671	  9.9000	  3.3425	   3.342	  40.255
  672	  9.9400	  3.3475	   3.347	  40.315
  673	  9.9800	  3.3525	   3.352	  40.375
  674	 10.0000	  3.3575	   3.357	  40.435
  675	 10.0400	  3.3625	   3.362	  40.495
  676	 10.0800	  3.3675	   3.367	  40.555
  677	 10.1200	  3.3725	   3.372	  40.615
  678	 10.1400	  3.3775	   3.377	  40.675
  679	 10.1800	  3.3825	   3.382	  40.735
  680	 10.2000	  3.3875	   3.387	  40.795
  681	 10.2400	  3.3925	   3.392	  40.855
  682	 10.2800	  3.3975	   3.398	  40.915
  683	 10.3200	  3.4025	   3.402	  40.975
  684	 10.3400	  3.4075	   3.408	  41.035
  685	 10.3800	  3.4125	   3.412	  41.095
  686	 10.4200	  3.4175	   3.418	  41.155
  687	 10.4600	  3.4225	   3.422	  41.215
  688	 10.4800	  3.4275	   3.428	  41.275
  689	 10.5200	  3.4325	   3.432	  41.335
  690	 10.5600	  3.4375	   3.438	  41.395
  691	 10.6000	  3.4425	   3.442	  41.455
  692	 10.6200	  3.4475	   3.447	  41.515
  693	 10.6600	  3.4525	   3.452	  41.575
  694	 10.7000	  3.4575	   3.457	  41.635
  695	 10.7400	  3.4625	   3.462	  41.695
  696	 10.7800	  3.4675	   3.467	  41.755
  697	 10.8000	  3.4725	   3.472	  41.815
  698	 10.8400	  3.4775	   3.477	  41.875
  699	 10.8800	  3.4825	   3.482	  41.935
  700	 10.8800	  3.4850	   3.485	  41.995
  701	 10.9200	  3.4900	   3.490	  42.055
  702	 10.9600	  3.4950	   3.495	  42.115
  703	 11.0000	  3.5000	   3.500	  42.175
  704	 11.0400	  3.5050	   3.505	  42.235
  705	 11.0800	  3.5100	   3.510	  42.295
  706	 11.1200	  3.5150	   3.515	  42.355
  707	 11.1400	  3.5200	   3.520	  42.415
  708	 11.1800	  3.5250	   3.525	  42.475
  709	 11.2200	  3.5300	   3.530	  42.535
  710	 11.2600	  3.5350	   3.535	  42.595
  711	 11.3000	  3.5400	   3.540	  42.655
  712	 11.3200	  3.5450	   3.545	  42.715
  713	 11.3600	  3.5500	   3.550	  42.775
  714	 11.4000	  3.5550	   3.555	  42.835
  715	 11.4400	  3.5600	   3.560	  42.895
  716	 11.4800	  3.5650	   3.565	  42.955
  717	 11.5000	  3.5700	   3.570	  43.015
  718	 11.5400	  3.5750	   3.575	  43.075
  719	 11.5800	  3.5800	   3.580	  43.135
  720	 11.6200	  3.5850	   3.585	  43.195
  721	 11.6600	  3.5900	   3.590	  43.255
  722	 11.7000	  3.5950	   3.595	  43.315
  723	 11.7400	  3.6000	   3.600	  43.375
  724	 11.7600	  3.6050	   3.605	  43.435
  725	 11.8000	  3.6100	   3.610	  43.495
  726	 11.8400	  3.6150	   3.615	  43.555
  727	 11.8800	  3.6200	   3.620	  43.615
  728	 11.9200	  3.6250	   3.625	  43.675
  729	 11.9600	  3.6300	   3.630	  43.735
  730	 11.9800	  3.6350	   3.635	  43.795
  731	 12.0200	  3.6400	   3.640	  43.855
  732	 12.0600	  3.6450	   3.645	  43.915
  733	 12.1000	  3.6500	   3.650	  43.975
  734	 12.1400	  3.6550	   3.655	  44.035
  735	 12.1800	  3.6600	   3.660	  44.095
  736	 12.2200	  3.6650	   3.665	  44.155
  737	 12.2600	  3.6700	   3.670	  44.215
  738	 12.2800	  3.6750	   3.675	  44.275
  739	 12.3200	  3.6800	   3.680	  44.335
  740	 12.3600	  3.6850	   3.685	  44.395
  741	 12.4000	  3.6900	   3.690	  44.455
  742	 12.4400	  3.6950	   3.695	  44.515
  743	 12.4800	  3.7000	   3.700	  44.575
  744	 12.5200	  3.7050	   3.705	  44.635
  745	 12.5600	  3.7100	   3.710	  44.695
  746	 12.5800	  3.7150	   3.715	  44.755
  747	 12.6200	  3.7200	   3.720	  44.815
  748	 12.6600	  3.7250	   3.725	  44.875
  749	 12.7000	  3.7300	   3.730	  44.935
  750	 12.7400	  3.7350	   3.735	  44.995
  751	 12.7800	  3.7400	   3.740	  45.055
  752	 12.8200	  3.7450	   3.745	  45.115
  753	 12.8600	  3.7500	   3.750	  45.175
  754	 12.9000	  3.7550	   3.755	  45.235
  755	 12.9200	  3.7600	   3.760	  45.295
  756	 12.9600	  3.7650	   3.765	  45.355
  757	 13.0000	  3.7700	   3.770	  45.415
  758	 13.0400	  3.7750	   3.775	  45.475
  759	 13.0800	  3.7800	   3.780	  45.535
  760	 13.1200	  3.7850	   3.785	  45.595
  761	 13.1600	  3.7900	   3.790	  45.655
  762	 13.2000	  3.7950	   3.795	  45.715
  763	 13.2400	  3.8000	   3.800	  45.775
  764	 13.2800	  3.8050	   3.805	  45.835
  765	 13.3200	  3.8100	   3.810	  45.895
  766	 13.3400	  3.8150	   3.815	  45.955
  767	 13.3800	  3.8200	   3.820	  46.015
  768	 13.4200	  3.8250	   3.825	  46.075
  769	 13.4600	  3.8300	   3.830	  46.135
  770	 13.5000	  3.8350	   3.835	  46.195
  771	 13.5400	  3.8400	   3.840	  46.255
  772	 13.5800	  3.8450	   3.845	  46.315
  773	 13.6200	  3.8500	   3.850	  46.375
  774	 13.6600	  3.8550	   3.855	  46.435
  775	 13.7000	  3.8600	   3.860	  46.495
  776	 13.7400	  3.8650	   3.865	  46.555
  777	 13.7800	  3.8700	   3.870	  46.615
  778	 13.8000	  3.8750	   3.875	  46.675
  779	 13.8600	  3.8800	   3.880	  46.735
  780	 13.8800	  3.8850	   3.885	  46.795
  781	 13.9200	  3.8900	   3.890	  46.855
  782	 13.9600	  3.8950	   3.895	  46.915
  783	 14.0000	  3.9000	   3.900	  46.975
  784	 14.0400	  3.9050	   3.905	  47.035
  785	 14.0800	  3.9100	   3.910	  47.095
  786	 14.1200	  3.9150	   3.915	  47.155
  787	 14.1600	  3.9200	   3.920	  47.215
  788	 14.2000	  3.9250	   3.925	  47.275
  789	 14.2400	  3.9300	   3.930	  47.335
  790	 14.2800	  3.9350	   3.935	  47.395
  791	 14.3200	  3.9400	   3.940	  47.455
  792	 14.3600	  3.9450	   3.945	  47.515
  793	 14.4000	  3.9500	   3.950	  47.575
  794	 14.4400	  3.9550	   3.955	  47.635
  795	 14.4800	  3.9600	   3.960	  47.695
  796	 14.5200	  3.9650	   3.965	  47.755
  797	 14.5600	  3.9700	   3.970	  47.815
  798	 14.6000	  3.9750	   3.975	  47.875
  799	 14.6400	  3.9800	   3.980	  47.935
  800	 14.6800	  3.9850	   3.985	  47.995
  801	 14.7200	  3.9900	   3.990	  48.055
  802	 14.7600	  3.9950	   3.995	  48.115
  803	 14.8000	  4.0000	   4.000	  48.175
  804	 14.8400	  4.0050	   4.005	  48.235
  805	 14.8800	  4.0100	   4.010	  48.295
  806	 14.9200	  4.0163	   4.016	  48.355
  807	 14.9600	  4.0200	   4.020	  48.415
  808	 15.0000	  4.0262	   4.026	  48.475
  809	 15.0400	  4.0300	   4.030	  48.535
  810	 15.0800	  4.0363	   4.036	  48.595
  811	 15.1200	  4.0400	   4.040	  48.655
  812	 15.1600	  4.0462	   4.046	  48.715
  813	 15.2000	  4.0500	   4.050	  48.775
  814	 15.2400	  4.0563	   4.056	  48.835
  815	 15.2800	  4.0600	   4.060	  48.895
  816	 15.3200	  4.0662	   4.066	  48.955
  817	 15.3600	  4.0700	   4.070	  49.015
  818	 15.3800	  4.0763	   4.076	  49.075
  819	 15.4200	  4.0800	   4.080	  49.135
  820	 15.4600	  4.0862	   4.086	  49.195
  821	 15.5000	  4.0900	   4.090	  49.255
  822	 15.5600	  4.0963	   4.096	  49.315
  823	 15.6000	  4.1000	   4.100	  49.375
  824	 15.6400	  4.1062	   4.106	  49.435
  825	 15.6600	  4.1100	   4.110	  49.495
  826	 15.7200	  4.1163	   4.116	  49.555
  827	 15.7600	  4.1212	   4.121	  49.615
  828	 15.8000	  4.1262	   4.126	  49.675
  829	 15.8400	  4.1312	   4.131	  49.735
  830	 15.8800	  4.1363	   4.136	  49.795
  831	 15.9200	  4.1413	   4.141	  49.855
  832	 15.9600	  4.1462	   4.146	  49.915
  833	 16.0000	  4.1512	   4.151	  49.975
  834	 16.0400	  4.1562	   4.156	  50.035
  835	 16.0800	  4.1613	   4.161	  50.095
  836	 16.1200	  4.1662	   4.166	  50.155
  837	 16.1600	  4.1712	   4.171	  50.215
  838	 16.2000	  4.1762	   4.176	  50.275
  839	 16.2400	  4.1813	   4.181	  50.335
  840	 16.2800	  4.1862	   4.186	  50.395
  841	 16.3200	  4.1912	   4.191	  50.455
  842	 16.3600	  4.1962	   4.196	  50.515
  843	 16.4000	  4.2013	   4.201	  50.575
  844	 16.4400	  4.2062	   4.206	  50.635
  845	 16.4800	  4.2112	   4.211	  50.695
  846	 16.5200	  4.2162	   4.216	  50.755
  847	 16.5600	  4.2213	   4.221	  50.815
  848	 16.6000	  4.2262	   4.226	  50.875
  849	 16.6600	  4.2312	   4.231	  50.935
  850	 16.7000	  4.2362	   4.236	  50.995
  851	 16.7400	  4.2413	   4.241	  51.055
  852	 16.7800	  4.2462	   4.246	  51.115
  853	 16.8200	  4.2512	   4.251	  51.175
  854	 16.8600	  4.2562	   4.256	  51.235
  855	 16.9000	  4.2613	   4.261	  51.295
  856	 16.9400	  4.2663	   4.266	  51.355
  857	 16.9800	  4.2712	   4.271	  51.415
  858	 17.0200	  4.2762	   4.276	  51.475
  859	 17.0600	  4.2812	   4.281	  51.535
  860	 17.1000	  4.2863	   4.286	  51.595
  861	 17.1400	  4.2912	   4.291	  51.655
  862	 17.1800	  4.2962	   4.296	  51.715
  863	 17.2200	  4.3012	   4.301	  51.775
  864	 17.2800	  4.3063	   4.306	  51.835
  865	 17.3200	  4.3112	   4.311	  51.895
  866	 17.3600	  4.3162	   4.316	  51.955
  867	 17.4000	  4.3212	   4.321	  52.015
  868	 17.4400	  4.3263	   4.326	  52.075
  869	 17.4800	  4.3312	   4.331	  52.135
  870	 17.5200	  4.3362	   4.336	  52.195
  871	 17.5600	  4.3412	   4.341	  52.255
  872	 17.6000	  4.3463	   4.346	  52.315
  873	 17.6400	  4.3512	   4.351	  52.375
  874	 17.6800	  4.3562	   4.356	  52.435
  875	 17.7200	  4.3612	   4.361	  52.495
  876	 17.7600	  4.3663	   4.366	  52.555
  877	 17.8000	  4.3712	   4.371	  52.615
  878	 17.8600	  4.3762	   4.376	  52.675
  879	 17.9000	  4.3812	   4.381	  52.735
  880	 17.9400	  4.3863	   4.386	  52.795
  881	 17.9800	  4.3913	   4.391	  52.855
  882	 18.0200	  4.3962	   4.396	  52.915
  883	 18.0600	  4.4012	   4.401	  52.975
  884	 18.1000	  4.4062	   4.406	  53.035
  885	 18.1400	  4.4113	   4.411	  53.095
  886	 18.1800	  4.4162	   4.416	  53.155
  887	 18.2400	  4.4212	   4.421	  53.215
  888	 18.2800	  4.4262	   4.426	  53.275
  889	 18.3200	  4.4313	   4.431	  53.335
  890	 18.3600	  4.4362	   4.436	  53.395
  891	 18.4000	  4.4412	   4.441	  53.455
  892	 18.4400	  4.4462	   4.446	  53.515
  893	 18.4800	  4.4513	   4.451	  53.575
  894	 18.5200	  4.4562	   4.456	  53.635
  895	 18.5600	  4.4612	   4.461	  53.695
  896	 18.6200	  4.4675	   4.467	  53.755
  897	 18.6600	  4.4725	   4.472	  53.815
  898	 18.7000	  4.4775	   4.477	  53.875
  899	 18.7400	  4.4825	   4.483	  53.935
  900	 18.7800	  4.4875	   4.487	  53.995
  901	 18.8200	  4.4925	   4.492	  54.055
  902	 18.8600	  4.4975	   4.497	  54.115
  903	 18.9000	  4.5025	   4.503	  54.175
  904	 18.9600	  4.5075	   4.507	  54.235
  905	 19.0000	  4.5125	   4.512	  54.295
  906	 19.0400	  4.5175	   4.517	  54.355
  907	 19.0800	  4.5225	   4.523	  54.415
  908	 19.1200	  4.5275	   4.527	  54.475
  909	 19.1600	  4.5325	   4.532	  54.535
  910	 19.2000	  4.5375	   4.537	  54.595
  911	 19.2400	  4.5425	   4.543	  54.655
  912	 19.2800	  4.5475	   4.548	  54.715
  913	 19.3400	  4.5525	   4.552	  54.775
  914	 19.3800	  4.5575	   4.557	  54.835
  915	 19.4200	  4.5625	   4.562	  54.895
  916	 19.4600	  4.5675	   4.568	  54.955
  917	 19.5000	  4.5725	   4.572	  55.015
  918	 19.5400	  4.5775	   4.577	  55.075
  919	 19.5800	  4.5825	   4.582	  55.135
  920	 19.6200	  4.5875	   4.588	  55.195
  921	 19.6800	  4.5925	   4.592	  55.255
  922	 19.7200	  4.5975	   4.597	  55.315
  923	 19.7600	  4.6012	   4.601	  55.375
  924	 19.8000	  4.6075	   4.608	  55.435
  925	 19.8400	  4.6112	   4.611	  55.495
  926	 19.8800	  4.6175	   4.617	  55.555
  927	 19.9400	  4.6225	   4.622	  55.615
  928	 19.9800	  4.6275	   4.628	  55.675
  929	 20.0200	  4.6325	   4.632	  55.735
  930	 20.0600	  4.6375	   4.637	  55.795
  931	 20.1000	  4.6425	   4.642	  55.855
  932	 20.1400	  4.6475	   4.648	  55.915
  933	 20.2000	  4.6525	   4.652	  55.975
  934	 20.2200	  4.6575	   4.657	  56.035
  935	 20.2600	  4.6625	   4.662	  56.095
  936	 20.3000	  4.6675	   4.668	  56.155
  937	 20.3600	  4.6725	   4.673	  56.215
  938	 20.4000	  4.6775	   4.677	  56.275
  939	 20.4400	  4.6825	   4.682	  56.335
  940	 20.4800	  4.6875	   4.688	  56.395
  941	 20.5200	  4.6925	   4.693	  56.455
  942	 20.5800	  4.6975	   4.697	  56.515
  943	 20.6200	  4.7025	   4.702	  56.575
  944	 20.6600	  4.7075	   4.707	  56.635
  945	 20.7000	  4.7125	   4.713	  56.695
  946	 20.7400	  4.7175	   4.717	  56.755
  947	 20.7800	  4.7225	   4.722	  56.815
  948	 20.8400	  4.7275	   4.727	  56.875
  949	 20.8800	  4.7325	   4.733	  56.935
  950	 20.9200	  4.7375	   4.737	  56.995
  951	 20.9600	  4.7425	   4.742	  57.055
  952	 21.0000	  4.7475	   4.747	  57.115
  953	 21.0400	  4.7525	   4.753	  57.175
  954	 21.1000	  4.7575	   4.757	  57.235
  955	 21.1400	  4.7625	   4.762	  57.295
  956	 21.1800	  4.7675	   4.767	  57.355
  957	 21.2200	  4.7725	   4.773	  57.415
  958	 21.2600	  4.7775	   4.777	  57.475
  959	 21.3200	  4.7825	   4.782	  57.535
  960	 21.3600	  4.7875	   4.787	  57.595
  961	 21.4000	  4.7925	   4.793	  57.655
  962	 21.4400	  4.7975	   4.797	  57.715
  963	 21.4800	  4.8025	   4.802	  57.775
  964	 21.5400	  4.8075	   4.807	  57.835
  965	 21.5600	  4.8125	   4.812	  57.895
  966	 21.6200	  4.8175	   4.818	  57.955
  967	 21.6600	  4.8225	   4.822	  58.015
  968	 21.7000	  4.8275	   4.827	  58.075
  969	 21.7400	  4.8325	   4.832	  58.135
  970	 21.8000	  4.8375	   4.838	  58.195
  971	 21.8400	  4.8425	   4.842	  58.255
  972	 21.8800	  4.8475	   4.847	  58.315
  973	 21.9200	  4.8525	   4.852	  58.375
  974	 21.9600	  4.8575	   4.858	  58.435
  975	 22.0000	  4.8625	   4.862	  58.495
  976	 22.0600	  4.8675	   4.867	  58.555
  977	 22.1000	  4.8725	   4.872	  58.615
  978	 22.1400	  4.8775	   4.878	  58.675
  979	 22.1800	  4.8825	   4.882	  58.735
  980	 22.2200	  4.8875	   4.887	  58.795
  981	 22.2800	  4.8925	   4.892	  58.855
  982	 22.3200	  4.8975	   4.898	  58.915
  983	 22.3600	  4.9025	   4.902	  58.975
  984	 22.4000	  4.9075	   4.907	  59.035
  985	 22.4600	  4.9125	   4.912	  59.095
  986	 22.5000	  4.9175	   4.918	  59.155
  987	 22.5400	  4.9225	   4.922	  59.215
  988	 22.5800	  4.9275	   4.927	  59.275
  989	 22.6200	  4.9325	   4.932	  59.335
  990	 22.6800	  4.9375	   4.938	  59.395
  991	 22.7200	  4.9425	   4.943	  59.455
  992	 22.7600	  4.9475	   4.947	  59.515
  993	 22.8000	  4.9525	   4.952	  59.575
  994	 22.8400	  4.9575	   4.957	  59.635
  995	 22.9000	  4.9625	   4.963	  59.695
  996	 22.9400	  4.9675	   4.967	  59.755
  997	 22.9800	  4.9725	   4.972	  59.815
  998	 23.0200	  4.9775	   4.977	  59.875
  999	 23.0800	  4.9825	   4.983	  59.935
 1000	 23.1200	  4.9875	   4.987	  59.995
 1001	 23.1600	  4.9925	   4.992	  60.055
 1002	 23.2000	  4.9975	   4.997	  60.115
 1003	 23.2400	  5.0025	   5.003	  60.175
 1004	 23.3000	  5.0075	   5.007	  60.235
 1005	 23.3400	  5.0125	   5.012	  60.295
 1006	 23.3800	  5.0175	   5.017	  60.355
 1007	 23.4200	  5.0225	   5.023	  60.415
 1008	 23.4800	  5.0275	   5.027	  60.475
 1009	 23.5200	  5.0325	   5.032	  60.535
 1010	 23.5600	  5.0375	   5.037	  60.595
 1011	 23.6000	  5.0425	   5.043	  60.655
 1012	 23.6400	  5.0475	   5.047	  60.715
 1013	 23.7000	  5.0525	   5.052	  60.775
 1014	 23.7400	  5.0575	   5.057	  60.835
 1015	 23.7800	  5.0625	   5.062	  60.895
 1016	 23.8200	  5.0675	   5.068	  60.955
 1017	 23.8600	  5.0725	   5.072	  61.015
 1018	 23.9200	  5.0775	   5.077	  61.075
 1019	 23.9600	  5.0825	   5.082	  61.135
 1020	 24.0000	  5.0875	   5.088	  61.195
 1021	 24.0400	  5.0925	   5.092	  61.255
 1022	 24.1000	  5.0975	   5.097	  61.315
 1023	 24.1400	  5.1025	   5.102	  61.375
 1024	 24.1800	  5.1075	   5.108	  61.435
 1025	 24.2400	  5.1125	   5.112	  61.495
 1026	 24.2800	  5.1175	   5.117	  61.555
 1027	 24.3200	  5.1225	   5.122	  61.615
 1028	 24.3600	  5.1275	   5.128	  61.675
 1029	 24.4000	  5.1325	   5.132	  61.735
 1030	 24.4600	  5.1375	   5.137	  61.795
 1031	 24.5000	  5.1437	   5.144	  61.855
 1032	 24.5400	  5.1487	   5.149	  61.915
 1033	 24.5800	  5.1537	   5.154	  61.975
 1034	 24.6400	  5.1588	   5.159	  62.035
 1035	 24.6800	  5.1637	   5.164	  62.095
 1036	 24.7200	  5.1687	   5.169	  62.155
 1037	 24.7600	  5.1737	   5.174	  62.215
 1038	 24.8200	  5.1788	   5.179	  62.275
 1039	 24.8600	  5.1837	   5.184	  62.335
 1040	 24.9000	  5.1887	   5.189	  62.395
 1041	 24.9400	  5.1937	   5.194	  62.455
 1042	 25.0000	  5.1988	   5.199	  62.515
 1043	 25.0400	  5.2037	   5.204	  62.575
 1044	 25.0800	  5.2087	   5.209	  62.635
 1045	 25.1200	  5.2137	   5.214	  62.695
 1046	 25.1800	  5.2188	   5.219	  62.755
 1047	 25.2200	  5.2238	   5.224	  62.815
 1048	 25.2600	  5.2287	   5.229	  62.875
 1049	 25.3000	  5.2337	   5.234	  62.935
 1050	 25.3400	  5.2387	   5.239	  62.995
 1051	 25.4000	  5.2438	   5.244	  63.055
 1052	 25.4400	  5.2487	   5.249	  63.115
 1053	 25.4800	  5.2537	   5.254	  63.175
 1054	 25.5200	  5.2587	   5.259	  63.235
 1055	 25.5800	  5.2638	   5.264	  63.295
 1056	 25.6200	  5.2687	   5.269	  63.355
 1057	 25.6600	  5.2737	   5.274	  63.415
 1058	 25.7200	  5.2787	   5.279	  63.475
 1059	 25.7600	  5.2838	   5.284	  63.535
 1060	 25.8000	  5.2887	   5.289	  63.595
 1061	 25.8400	  5.2937	   5.294	  63.655
 1062	 25.9000	  5.2987	   5.299	  63.715
 1063	 25.9400	  5.3038	   5.304	  63.775
 1064	 25.9800	  5.3087	   5.309	  63.835
 1065	 26.0200	  5.3137	   5.314	  63.895
 1066	 26.0600	  5.3187	   5.319	  63.955
 1067	 26.1200	  5.3238	   5.324	  64.015
 1068	 26.1600	  5.3287	   5.329	  64.075
 1069	 26.2000	  5.3337	   5.334	  64.135
 1070	 26.2600	  5.3387	   5.339	  64.195
 1071	 26.3000	  5.3438	   5.344	  64.255
 1072	 26.3400	  5.3488	   5.349	  64.315
 1073	 26.3800	  5.3537	   5.354	  64.375
 1074	 26.4400	  5.3587	   5.359	  64.435
 1075	 26.4800	  5.3637	   5.364	  64.495
 1076	 26.5200	  5.3688	   5.369	  64.555
 1077	 26.5600	  5.3737	   5.374	  64.615
 1078	 26.6200	  5.3787	   5.379	  64.675
 1079	 26.6600	  5.3837	   5.384	  64.735
 1080	 26.7000	  5.3888	   5.389	  64.795
 1081	 26.7400	  5.3937	   5.394	  64.855
 1082	 26.8000	  5.3987	   5.399	  64.915
 1083	 26.8400	  5.4037	   5.404	  64.975
 1084	 26.8800	  5.4088	   5.409	  65.035
 1085	 26.9400	  5.4137	   5.414	  65.095
 1086	 26.9800	  5.4187	   5.419	  65.155
 1087	 27.0200	  5.4237	   5.424	  65.215
 1088	 27.0800	  5.4288	   5.429	  65.275
 1089	 27.1200	  5.4337	   5.434	  65.335
 1090	 27.1600	  5.4387	   5.439	  65.395
 1091	 27.2000	  5.4437	   5.444	  65.455
 1092	 27.2600	  5.4488	   5.449	  65.515
 1093	 27.3000	  5.4537	   5.454	  65.575
 1094	 27.3400	  5.4587	   5.459	  65.635
 1095	 27.4000	  5.4637	   5.464	  65.695
 1096	 27.4400	  5.4688	   5.469	  65.755
 1097	 27.4800	  5.4738	   5.474	  65.815
 1098	 27.5200	  5.4787	   5.479	  65.875
 1099	 27.5800	  5.4837	   5.484	  65.935
 1100	 27.6200	  5.4887	   5.489	  65.995
 1101	 27.6600	  5.4938	   5.494	  66.055
 1102	 27.7200	  5.4987	   5.499	  66.115
 1103	 27.7600	  5.5037	   5.504	  66.175
 1104	 27.8000	  5.5087	   5.509	  66.235
 1105	 27.8600	  5.5138	   5.514	  66.295
 1106	 27.9000	  5.5187	   5.519	  66.355
 1107	 27.9400	  5.5237	   5.524	  66.415
 1108	 28.0000	  5.5287	   5.529	  66.475
 1109	 28.0400	  5.5338	   5.534	  66.535
 1110	 28.0800	  5.5387	   5.539	  66.595
 1111	 28.1400	  5.5437	   5.544	  66.655
 1112	 28.1800	  5.5487	   5.549	  66.715
 1113	 28.2200	  5.5538	   5.554	  66.775
 1114	 28.2600	  5.5587	   5.559	  66.835
 1115	 28.3200	  5.5637	   5.564	  66.895
 1116	 28.3600	  5.5687	   5.569	  66.955
 1117	 28.4000	  5.5738	   5.574	  67.015
 1118	 28.4600	  5.5787	   5.579	  67.075
 1119	 28.5000	  5.5837	   5.584	  67.135
 1120	 28.5400	  5.5887	   5.589	  67.195
 1121	 28.5800	  5.5938	   5.594	  67.255
 1122	 28.6400	  5.5987	   5.599	  67.315
 1123	 28.6800	  5.6037	   5.604	  67.375
 1124	 28.7200	  5.6087	   5.609	  67.435
 1125	 28.7600	  5.6137	   5.614	  67.495
 1126	 28.8200	  5.6188	   5.619	  67.555
 1127	 28.8600	  5.6237	   5.624	  67.615
 1128	 28.9200	  5.6287	   5.629	  67.675
 1129	 28.9600	  5.6337	   5.634	  67.735
 1130	 29.0000	  5.6388	   5.639	  67.795
 1131	 29.0400	  5.6437	   5.644	  67.855
 1132	 29.1000	  5.6487	   5.649	  67.915
 1133	 29.1400	  5.6537	   5.654	  67.975
 1134	 29.1800	  5.6588	   5.659	  68.035
 1135	 29.2400	  5.6637	   5.664	  68.095
 1136	 29.2800	  5.6687	   5.669	  68.155
 1137	 29.3200	  5.6737	   5.674	  68.215
 1138	 29.3600	  5.6788	   5.679	  68.275
 1139	 29.4200	  5.6837	   5.684	  68.335
 1140	 29.4600	  5.6887	   5.689	  68.395
 1141	 29.5200	  5.6937	   5.694	  68.455
 1142	 29.5600	  5.6988	   5.699	  68.515
 1143	 29.6000	  5.7037	   5.704	  68.575
 1144	 29.6600	  5.7087	   5.709	  68.635
 1145	 29.7000	  5.7137	   5.714	  68.695
 1146	 29.7400	  5.7188	   5.719	  68.755
 1147	 29.8000	  5.7237	   5.724	  68.815
 1148	 29.8400	  5.7287	   5.729	  68.875
 1149	 29.8800	  5.7337	   5.734	  68.935
 1150	 29.9400	  5.7387	   5.739	  68.995
 1151	 29.9800	  5.7438	   5.744	  69.055
 1152	 30.0200	  5.7487	   5.749	  69.115
 1153	 30.0800	  5.7537	   5.754	  69.175
 1154	 30.1200	  5.7587	   5.759	  69.235
 1155	 30.1600	  5.7638	   5.764	  69.295
 1156	 30.2000	  5.7687	   5.769	  69.355
 1157	 30.2600	  5.7737	   5.774	  69.415
 1158	 30.3000	  5.7787	   5.779	  69.475
 1159	 30.3400	  5.7838	   5.784	  69.535
 1160	 30.3800	  5.7887	   5.789	  69.595
 1161	 30.4200	  5.7937	   5.794	  69.655
 1162	 30.4800	  5.7987	   5.799	  69.715
 1163	 30.5200	  5.8038	   5.804	  69.775
 1164	 30.5800	  5.8087	   5.809	  69.835
 1165	 30.6200	  5.8137	   5.814	  69.895
 1166	 30.6600	  5.8187	   5.819	  69.955
 1167	 30.7200	  5.8238	   5.824	  70.015
 1168	 30.7600	  5.8287	   5.829	  70.075
 1169	 30.8000	  5.8337	   5.834	  70.135
 1170	 30.8600	  5.8387	   5.839	  70.195
 1171	 30.9000	  5.8438	   5.844	  70.255
 1172	 30.9400	  5.8487	   5.849	  70.315
 1173	 31.0000	  5.8537	   5.854	  70.375
 1174	 31.0400	  5.8587	   5.859	  70.435
 1175	 31.0800	  5.8637	   5.864	  70.495
 1176	 31.1400	  5.8688	   5.869	  70.555
 1177	 31.1800	  5.8737	   5.874	  70.615
 1178	 31.2200	  5.8787	   5.879	  70.675
 1179	 31.2800	  5.8837	   5.884	  70.735
 1180	 31.3200	  5.8888	   5.889	  70.795
 1181	 31.3600	  5.8937	   5.894	  70.855
 1182	 31.4200	  5.8987	   5.899	  70.915
 1183	 31.4600	  5.9037	   5.904	  70.975
 1184	 31.5000	  5.9088	   5.909	  71.035
 1185	 31.5600	  5.9137	   5.914	  71.095
 1186	 31.6000	  5.9187	   5.919	  71.155
 1187	 31.6400	  5.9237	   5.924	  71.215
 1188	 31.7000	  5.9288	   5.929	  71.275
 1189	 31.7400	  5.9337	   5.934	  71.335
 1190	 31.7800	  5.9387	   5.939	  71.395
 1191	 31.8400	  5.9437	   5.944	  71.455
 1192	 31.8800	  5.9488	   5.949	  71.515
 1193	 31.9200	  5.9537	   5.954	  71.575
 1194	 31.9800	  5.9587	   5.959	  71.635
 1195	 32.0200	  5.9637	   5.964	  71.695
 1196	 32.0600	  5.9688	   5.969	  71.755
 1197	 32.1200	  5.9737	   5.974	  71.815
 1198	 32.1600	  5.9787	   5.979	  71.875
 1199	 32.2000	  5.9837	   5.984	  71.935
 1200	 32.2600	  5.9887	   5.989	  71.995
 1201	 32.3000	  5.9938	   5.994	  72.055
 1202	 32.3600	  5.9987	   5.999	  72.115
 1203	 32.4000	  6.0037	   6.004	  72.175
 1204	 32.4400	  6.0087	   6.009	  72.235
 1205	 32.4800	  6.0138	   6.014	  72.295
 1206	 32.5400	  6.0187	   6.019	  72.355
 1207	 32.5800	  6.0237	   6.024	  72.415
 1208	 32.6400	  6.0287	   6.029	  72.475
 1209	 32.6800	  6.0338	   6.034	  72.535
 1210	 32.7200	  6.0387	   6.039	  72.595
 1211	 32.7800	  6.0437	   6.044	  72.655
 1212	 32.8200	  6.0487	   6.049	  72.715
 1213	 32.8600	  6.0538	   6.054	  72.775
 1214	 32.9200	  6.0587	   6.059	  72.835
 1215	 32.9600	  6.0637	   6.064	  72.895
 1216	 33.0000	  6.0687	   6.069	  72.955
 1217	 33.0600	  6.0738	   6.074	  73.015
 1218	 33.1000	  6.0787	   6.079	  73.075
 1219	 33.1400	  6.0837	   6.084	  73.135
 1220	 33.1800	  6.0887	   6.089	  73.195
 1221	 33.2400	  6.0938	   6.094	  73.255
 1222	 33.2800	  6.0987	   6.099	  73.315
 1223	 33.3400	  6.1037	   6.104	  73.375
 1224	 33.3800	  6.1087	   6.109	  73.435
 1225	 33.4200	  6.1137	   6.114	  73.495
 1226	 33.4800	  6.1188	   6.119	  73.555
 1227	 33.5200	  6.1237	   6.124	  73.615
 1228	 33.5600	  6.1287	   6.129	  73.675
 1229	 33.6200	  6.1337	   6.134	  73.735
 1230	 33.6600	  6.1388	   6.139	  73.795
 1231	 33.7200	  6.1437	   6.144	  73.855
 1232	 33.7600	  6.1487	   6.149	  73.915
 1233	 33.8000	  6.1537	   6.154	  73.975
 1234	 33.8600	  6.1588	   6.159	  74.035
 1235	 33.9000	  6.1637	   6.164	  74.095
 1236	 33.9400	  6.1687	   6.169	  74.155
 1237	 34.0000	  6.1737	   6.174	  74.215
 1238	 34.0400	  6.1788	   6.179	  74.275
 1239	 34.0800	  6.1837	   6.184	  74.335
 1240	 34.1400	  6.1887	   6.189	  74.395
 1241	 34.1800	  6.1937	   6.194	  74.455
 1242	 34.2200	  6.1988	   6.199	  74.515
 1243	 34.2800	  6.2037	   6.204	  74.575
 1244	 34.3200	  6.2075	   6.207	  74.635
 1245	 34.3600	  6.2125	   6.213	  74.695
 1246	 34.4000	  6.2175	   6.217	  74.755
 1247	 34.4600	  6.2225	   6.222	  74.815
 1248	 34.5000	  6.2275	   6.227	  74.875
 1249	 34.5600	  6.2325	   6.233	  74.935
 1250	 34.6000	  6.2375	   6.237	  74.995
 1251	 34.6400	  6.2425	   6.242	  75.055
 1252	 34.7000	  6.2475	   6.247	  75.115
 1253	 34.7400	  6.2525	   6.253	  75.175
 1254	 34.8000	  6.2575	   6.257	  75.235
 1255	 34.8400	  6.2625	   6.262	  75.295
 1256	 34.8800	  6.2675	   6.267	  75.355
 1257	 34.9400	  6.2725	   6.273	  75.415
 1258	 34.9800	  6.2787	   6.279	  75.475
 1259	 35.0200	  6.2825	   6.282	  75.535
 1260	 35.0800	  6.2875	   6.287	  75.595
 1261	 35.1200	  6.2925	   6.293	  75.655
 1262	 35.1600	  6.2975	   6.297	  75.715
 1263	 35.2000	  6.3025	   6.302	  75.775
 1264	 35.2600	  6.3075	   6.307	  75.835
 1265	 35.3000	  6.3125	   6.312	  75.895
 1266	 35.3400	  6.3175	   6.317	  75.955
 1267	 35.4000	  6.3225	   6.322	  76.015
 1268	 35.4400	  6.3275	   6.327	  76.075
 1269	 35.4800	  6.3325	   6.332	  76.135
 1270	 35.5400	  6.3375	   6.338	  76.195
 1271	 35.5800	  6.3425	   6.342	  76.255
 1272	 35.6200	  6.3475	   6.347	  76.315
 1273	 35.6800	  6.3525	   6.352	  76.375
 1274	 35.7200	  6.3575	   6.358	  76.435
 1275	 35.7800	  6.3625	   6.362	  76.495
 1276	 35.8200	  6.3675	   6.367	  76.555
 1277	 35.8600	  6.3725	   6.372	  76.615
 1278	 35.9200	  6.3775	   6.378	  76.675
 1279	 35.9600	  6.3825	   6.382	  76.735
 1280	 36.0000	  6.3875	   6.387	  76.795
 1281	 36.0600	  6.3925	   6.392	  76.855
 1282	 36.1000	  6.3975	   6.398	  76.915
 1283	 36.1400	  6.4025	   6.402	  76.975
 1284	 36.2000	  6.4075	   6.407	  77.035
 1285	 36.2400	  6.4125	   6.412	  77.095
 1286	 36.2800	  6.4175	   6.418	  77.155
 1287	 36.3400	  6.4225	   6.422	  77.215
 1288	 36.3800	  6.4275	   6.427	  77.275
 1289	 36.4200	  6.4325	   6.432	  77.335
 1290	 36.4800	  6.4375	   6.438	  77.395
 1291	 36.5200	  6.4425	   6.442	  77.455
 1292	 36.5800	  6.4475	   6.447	  77.515
 1293	 36.6200	  6.4525	   6.452	  77.575
 1294	 36.6600	  6.4575	   6.457	  77.635
 1295	 36.7000	  6.4625	   6.462	  77.695
 1296	 36.7600	  6.4675	   6.467	  77.755
 1297	 36.8000	  6.4725	   6.472	  77.815
 1298	 36.8400	  6.4775	   6.477	  77.875
 1299	 36.9000	  6.4825	   6.483	  77.935
 1300	 36.9400	  6.4875	   6.487	  77.995
 1301	 37.0000	  6.4925	   6.492	  78.055
 1302	 37.0400	  6.4975	   6.497	  78.115
 1303	 37.1000	  6.5025	   6.503	  78.175
 1304	 37.1400	  6.5075	   6.507	  78.235
 1305	 37.1800	  6.5125	   6.512	  78.295
 1306	 37.2400	  6.5175	   6.517	  78.355
 1307	 37.2800	  6.5225	   6.523	  78.415
 1308	 37.3200	  6.5275	   6.527	  78.475
 1309	 37.3600	  6.5325	   6.532	  78.535
 1310	 37.4200	  6.5375	   6.537	  78.595
 1311	 37.4600	  6.5425	   6.543	  78.655
 1312	 37.5200	  6.5475	   6.547	  78.715
 1313	 37.5600	  6.5525	   6.552	  78.775
 1314	 37.6000	  6.5575	   6.557	  78.835
 1315	 37.6600	  6.5625	   6.562	  78.895
 1316	 37.7000	  6.5675	   6.567	  78.955
 1317	 37.7400	  6.5725	   6.572	  79.015
 1318	 37.8000	  6.5775	   6.577	  79.075
 1319	 37.8400	  6.5825	   6.582	  79.135
 1320	 37.9000	  6.5875	   6.587	  79.195
 1321	 37.9400	  6.5925	   6.592	  79.255
 1322	 37.9800	  6.5975	   6.597	  79.315
 1323	 38.0400	  6.6025	   6.602	  79.375
 1324	 38.0800	  6.6075	   6.608	  79.435
 1325	 38.1200	  6.6125	   6.612	  79.495
 1326	 38.1800	  6.6175	   6.617	  79.555
 1327	 38.2200	  6.6225	   6.622	  79.615
 1328	 38.2600	  6.6275	   6.628	  79.675
 1329	 38.3200	  6.6325	   6.632	  79.735
 1330	 38.3600	  6.6375	   6.637	  79.795
 1331	 38.4200	  6.6425	   6.642	  79.855
 1332	 38.4600	  6.6475	   6.648	  79.915
 1333	 38.5000	  6.6525	   6.652	  79.975
 1334	 38.5600	  6.6575	   6.657	  80.035
 1335	 38.6000	  6.6625	   6.662	  80.095
 1336	 38.6600	  6.6675	   6.668	  80.155
 1337	 38.7000	  6.6725	   6.672	  80.215
 1338	 38.7400	  6.6775	   6.677	  80.275
 1339	 38.8000	  6.6825	   6.682	  80.335
 1340	 38.8400	  6.6875	   6.688	  80.395
 1341	 38.8800	  6.6925	   6.692	  80.455
 1342	 38.9400	  6.6975	   6.697	  80.515
 1343	 38.9800	  6.7025	   6.702	  80.575
 1344	 39.0200	  6.7075	   6.707	  80.635
 1345	 39.0800	  6.7125	   6.712	  80.695
 1346	 39.1200	  6.7175	   6.717	  80.755
 1347	 39.1600	  6.7225	   6.722	  80.815
 1348	 39.2200	  6.7275	   6.727	  80.875
 1349	 39.2600	  6.7325	   6.733	  80.935
 1350	 39.3200	  6.7375	   6.737	  80.995
 1351	 39.3600	  6.7425	   6.742	  81.055
 1352	 39.4000	  6.7475	   6.747	  81.115
 1353	 39.4600	  6.7525	   6.753	  81.175
 1354	 39.5000	  6.7575	   6.757	  81.235
 1355	 39.5600	  6.7625	   6.762	  81.295
 1356	 39.6000	  6.7675	   6.767	  81.355
 1357	 39.6400	  6.7725	   6.773	  81.415
 1358	 39.7000	  6.7775	   6.777	  81.475
 1359	 39.7400	  6.7825	   6.782	  81.535
 1360	 39.7800	  6.7875	   6.787	  81.595
 1361	 39.8400	  6.7925	   6.793	  81.655
 1362	 39.8800	  6.7975	   6.797	  81.715
 1363	 39.9400	  6.8025	   6.802	  81.775
 1364	 39.9800	  6.8075	   6.807	  81.835
 1365	 40.0200	  6.8125	   6.812	  81.895
 1366	 40.0800	  6.8175	   6.817	  81.955
 1367	 40.1200	  6.8225	   6.822	  82.015
 1368	 40.1800	  6.8275	   6.827	  82.075
 1369	 40.2200	  6.8325	   6.832	  82.135
 1370	 40.2600	  6.8375	   6.837	  82.195
 1371	 40.3200	  6.8425	   6.842	  82.255
 1372	 40.3600	  6.8475	   6.847	  82.315
 1373	 40.4000	  6.8525	   6.852	  82.375
 1374	 40.4600	  6.8575	   6.858	  82.435
 1375	 40.5000	  6.8625	   6.862	  82.495
 1376	 40.5400	  6.8675	   6.867	  82.555
 1377	 40.6000	  6.8725	   6.872	  82.615
 1378	 40.6400	  6.8775	   6.878	  82.675
 1379	 40.6800	  6.8825	   6.882	  82.735
 1380	 40.7400	  6.8875	   6.887	  82.795
 1381	 40.7800	  6.8925	   6.892	  82.855
 1382	 40.8200	  6.8975	   6.898	  82.915
 1383	 40.8800	  6.9025	   6.902	  82.975
 1384	 40.9200	  6.9075	   6.907	  83.035
 1385	 40.9800	  6.9125	   6.912	  83.095
 1386	 41.0200	  6.9162	   6.916	  83.155
 1387	 41.0600	  6.9212	   6.921	  83.215
 1388	 41.1000	  6.9262	   6.926	  83.275
 1389	 41.1600	  6.9312	   6.931	  83.335
 1390	 41.2000	  6.9362	   6.936	  83.395
 1391	 41.2600	  6.9412	   6.941	  83.455
 1392	 41.3000	  6.9462	   6.946	  83.515
 1393	 41.3400	  6.9513	   6.951	  83.575
 1394	 41.4000	  6.9562	   6.956	  83.635
 1395	 41.4400	  6.9612	   6.961	  83.695
 1396	 41.5000	  6.9662	   6.966	  83.755
 1397	 41.5400	  6.9713	   6.971	  83.815
 1398	 41.5800	  6.9762	   6.976	  83.875
 1399	 41.6400	  6.9812	   6.981	  83.935
 1400	 41.6800	  6.9862	   6.986	  83.995
 1401	 41.7200	  6.9913	   6.991	  84.055
 1402	 41.7800	  6.9962	   6.996	  84.115
 1403	 41.8200	  7.0012	   7.001	  84.175
 1404	 41.8800	  7.0062	   7.006	  84.235
 1405	 41.9200	  7.0113	   7.011	  84.295
 1406	 41.9800	  7.0162	   7.016	  84.355
 1407	 42.0200	  7.0212	   7.021	  84.415
 1408	 42.0600	  7.0262	   7.026	  84.475
 1409	 42.1200	  7.0312	   7.031	  84.535
 1410	 42.1600	  7.0362	   7.036	  84.595
 1411	 42.2200	  7.0412	   7.041	  84.655
 1412	 42.2600	  7.0462	   7.046	  84.715
 1413	 42.3000	  7.0512	   7.051	  84.775
 1414	 42.3600	  7.0562	   7.056	  84.835
 1415	 42.4000	  7.0612	   7.061	  84.895
 1416	 42.4400	  7.0662	   7.066	  84.955
 1417	 42.5000	  7.0712	   7.071	  85.015
 1418	 42.5400	  7.0763	   7.076	  85.075
 1419	 42.5800	  7.0812	   7.081	  85.135
 1420	 42.6400	  7.0862	   7.086	  85.195
 1421	 42.6800	  7.0912	   7.091	  85.255
 1422	 42.7400	  7.0963	   7.096	  85.315
 1423	 42.7800	  7.1012	   7.101	  85.375
 1424	 42.8200	  7.1062	   7.106	  85.435
 1425	 42.8800	  7.1112	   7.111	  85.495
 1426	 42.9200	  7.1163	   7.116	  85.555
 1427	 42.9800	  7.1212	   7.121	  85.615
 1428	 43.0200	  7.1262	   7.126	  85.675
 1429	 43.0600	  7.1312	   7.131	  85.735
 1430	 43.1200	  7.1363	   7.136	  85.795
 1431	 43.1600	  7.1412	   7.141	  85.855
 1432	 43.2000	  7.1462	   7.146	  85.915
 1433	 43.2600	  7.1512	   7.151	  85.975
 1434	 43.3000	  7.1562	   7.156	  86.035
 1435	 43.3600	  7.1612	   7.161	  86.095
 1436	 43.4000	  7.1662	   7.166	  86.155
 1437	 43.4400	  7.1712	   7.171	  86.215
 1438	 43.5000	  7.1762	   7.176	  86.275
 1439	 43.5400	  7.1812	   7.181	  86.335
 1440	 43.6000	  7.1862	   7.186	  86.395
 1441	 43.6400	  7.1912	   7.191	  86.455
 1442	 43.7000	  7.1962	   7.196	  86.515
 1443	 43.7400	  7.2013	   7.201	  86.575
 1444	 43.7800	  7.2062	   7.206	  86.635
 1445	 43.8400	  7.2112	   7.211	  86.695
 1446	 43.8800	  7.2162	   7.216	  86.755
 1447	 43.9400	  7.2213	   7.221	  86.815
 1448	 43.9800	  7.2262	   7.226	  86.875
 1449	 44.0200	  7.2312	   7.231	  86.935
 1450	 44.0800	  7.2362	   7.236	  86.995
 1451	 44.1200	  7.2413	   7.241	  87.055
 1452	 44.1800	  7.2462	   7.246	  87.115
 1453	 44.2200	  7.2512	   7.251	  87.175
 1454	 44.2600	  7.2562	   7.256	  87.235
 1455	 44.3200	  7.2613	   7.261	  87.295
 1456	 44.3600	  7.2662	   7.266	  87.355
 1457	 44.4200	  7.2712	   7.271	  87.415
 1458	 44.4600	  7.2762	   7.276	  87.475
 1459	 44.5000	  7.2812	   7.281	  87.535
 1460	 44.5600	  7.2862	   7.286	  87.595
 1461	 44.6000	  7.2912	   7.291	  87.655
 1462	 44.6600	  7.2962	   7.296	  87.715
 1463	 44.7000	  7.3012	   7.301	  87.775
 1464	 44.7600	  7.3062	   7.306	  87.835
 1465	 44.8000	  7.3112	   7.311	  87.895
 1466	 44.8400	  7.3162	   7.316	  87.955
 1467	 44.9000	  7.3212	   7.321	  88.015
 1468	 44.9400	  7.3262	   7.326	  88.075
 1469	 44.9800	  7.3312	   7.331	  88.135
 1470	 45.0400	  7.3362	   7.336	  88.195
 1471	 45.0800	  7.3412	   7.341	  88.255
 1472	 45.1400	  7.3463	   7.346	  88.315
 1473	 45.1800	  7.3512	   7.351	  88.375
 1474	 45.2200	  7.3562	   7.356	  88.435
 1475	 45.2800	  7.3612	   7.361	  88.495
 1476	 45.3200	  7.3663	   7.366	  88.555
 1477	 45.3600	  7.3712	   7.371	  88.615
 1478	 45.4000	  7.3762	   7.376	  88.675
 1479	 45.4600	  7.3812	   7.381	  88.735
 1480	 45.5000	  7.3863	   7.386	  88.795
 1481	 45.5600	  7.3912	   7.391	  88.855
 1482	 45.6000	  7.3962	   7.396	  88.915
 1483	 45.6600	  7.4012	   7.401	  88.975
 1484	 45.7000	  7.4062	   7.406	  89.035
 1485	 45.7400	  7.4112	   7.411	  89.095
 1486	 45.8000	  7.4162	   7.416	  89.155
 1487	 45.8400	  7.4212	   7.421	  89.215
 1488	 45.8800	  7.4262	   7.426	  89.275
 1489	 45.9400	  7.4312	   7.431	  89.335
 1490	 45.9800	  7.4362	   7.436	  89.395
 1491	 46.0400	  7.4412	   7.441	  89.455
 1492	 46.0800	  7.4462	   7.446	  89.515
 1493	 46.1400	  7.4512	   7.451	  89.575
 1494	 46.1800	  7.4562	   7.456	  89.635
 1495	 46.2400	  7.4612	   7.461	  89.695
 1496	 46.2800	  7.4662	   7.466	  89.755
 1497	 46.3200	  7.4713	   7.471	  89.815
 1498	 46.3800	  7.4762	   7.476	  89.875
 1499	 46.4200	  7.4812	   7.481	  89.935
 1500	 46.4600	  7.4862	   7.486	  89.995
 1501	 46.5200	  7.4913	   7.491	  90.055
 1502	 46.5600	  7.4962	   7.496	  90.115
 1503	 46.6000	  7.5012	   7.501	  90.175
 1504	 46.6600	  7.5062	   7.506	  90.235
 1505	 46.7000	  7.5113	   7.511	  90.295
 1506	 46.7600	  7.5162	   7.516	  90.355
 1507	 46.8000	  7.5200	   7.520	  90.415
 1508	 46.8400	  7.5262	   7.526	  90.475
 1509	 46.9000	  7.5300	   7.530	  90.535
 1510	 46.9400	  7.5362	   7.536	  90.595
 1511	 47.0000	  7.5400	   7.540	  90.655
 1512	 47.0400	  7.5462	   7.546	  90.715
 1513	 47.1000	  7.5512	   7.551	  90.775
 1514	 47.1400	  7.5562	   7.556	  90.835
 1515	 47.1800	  7.5600	   7.560	  90.895
 1516	 47.2400	  7.5662	   7.566	  90.955
 1517	 47.2800	  7.5700	   7.570	  91.015
 1518	 47.3400	  7.5762	   7.576	  91.075
 1519	 47.3800	  7.5800	   7.580	  91.135
 1520	 47.4200	  7.5862	   7.586	  91.195
 1521	 47.4800	  7.5912	   7.591	  91.255
 1522	 47.5200	  7.5963	   7.596	  91.315
 1523	 47.5600	  7.6012	   7.601	  91.375
 1524	 47.6200	  7.6062	   7.606	  91.435
 1525	 47.6800	  7.6112	   7.611	  91.495
 1526	 47.7200	  7.6163	   7.616	  91.555
 1527	 47.7600	  7.6212	   7.621	  91.615
 1528	 47.8200	  7.6262	   7.626	  91.675
 1529	 47.8600	  7.6312	   7.631	  91.735
 1530	 47.9000	  7.6363	   7.636	  91.795
 1531	 47.9600	  7.6412	   7.641	  91.855
 1532	 48.0000	  7.6462	   7.646	  91.915
 1533	 48.0600	  7.6512	   7.651	  91.975
 1534	 48.1000	  7.6562	   7.656	  92.035
 1535	 48.1400	  7.6612	   7.661	  92.095
 1536	 48.2000	  7.6662	   7.666	  92.155
 1537	 48.2400	  7.6712	   7.671	  92.215
 1538	 48.3000	  7.6762	   7.676	  92.275
 1539	 48.3400	  7.6812	   7.681	  92.335
 1540	 48.3800	  7.6862	   7.686	  92.395
 1541	 48.4400	  7.6912	   7.691	  92.455
 1542	 48.4800	  7.6962	   7.696	  92.515
 1543	 48.5200	  7.7012	   7.701	  92.575
 1544	 48.5800	  7.7062	   7.706	  92.635
 1545	 48.6200	  7.7112	   7.711	  92.695
 1546	 48.6800	  7.7162	   7.716	  92.755
 1547	 48.7200	  7.7213	   7.721	  92.815
 1548	 48.7600	  7.7262	   7.726	  92.875
 1549	 48.8200	  7.7300	   7.730	  92.935
 1550	 48.8600	  7.7362	   7.736	  92.995
 1551	 48.9000	  7.7400	   7.740	  93.055
 1552	 48.9600	  7.7462	   7.746	  93.115
 1553	 49.0000	  7.7500	   7.750	  93.175
 1554	 33.6000	  7.7850	   7.785	  93.235
 1555	  0.4400	  7.7900	   7.790	  93.295
 1556	  0.1200	  7.7862	   7.786	  93.355
 1557	  0.1200	  7.7887	   7.789	  93.415
 1558	  0.1000	  7.7937	   7.794	  93.475
 1559	  0.1000	  7.7987	   7.799	  93.535
 1560	  0.1000	  7.8038	   7.804	  93.595
 1561	  0.1000	  7.8087	   7.809	  93.655
 1562	  0.1000	  7.8137	   7.814	  93.715
 1563	  0.1000	  7.8187	   7.819	  93.775
 1564	  0.1000	  7.8238	   7.824	  93.835
 1565	  0.1000	  7.8287	   7.829	  93.895
 1566	  0.1000	  7.8337	   7.834	  93.955
 1567	  0.1000	  7.8375	   7.837	  94.015
 1568	  0.1000	  7.8438	   7.844	  94.075
 1569	  0.1000	  7.8475	   7.847	  94.135
 1570	  0.1000	  7.8537	   7.854	  94.195
 1571	  0.1000	  7.8575	   7.857	  94.255
 1572	  0.1000	  7.8637	   7.864	  94.315
 1573	  0.1000	  7.8675	   7.867	  94.375
 1574	  0.1000	  7.8737	   7.874	  94.435
 1575	  0.1000	  7.8775	   7.878	  94.495
 1576	  0.1000	  7.8837	   7.884	  94.555
 1577	  0.1000	  7.8875	   7.887	  94.615
 1578	  0.1000	  7.8925	   7.892	  94.675
 1579	  0.1000	  7.8975	   7.898	  94.735
 1580	  0.1000	  7.9025	   7.902	  94.795
 1581	  0.1000	  7.9075	   7.907	  94.855
 1582	  0.1000	  7.9125	   7.912	  94.915
 1583	  0.1000	  7.9175	   7.918	  94.975
 1584	  0.1000	  7.9225	   7.922	  95.035
 1585	  0.1000	  7.9275	   7.927	  95.095
 1586	  0.1000	  7.9337	   7.934	  95.155
 1587	  0.1000	  7.9375	   7.938	  95.215
 1588	  0.1000	  7.9437	   7.944	  95.275
 1589	  0.1000	  7.9475	   7.947	  95.335
 1590	  0.1000	  7.9537	   7.954	  95.395
 1591	  0.1000	  7.9575	   7.957	  95.455
 1592	  0.1000	  7.9637	   7.964	  95.515
 1593	  0.1000	  7.9675	   7.967	  95.575
 1594	  0.1000	  7.9725	   7.972	  95.635
 1595	  0.1000	  7.9775	   7.977	  95.695
 1596	  0.1000	  7.9825	   7.982	  95.755
 1597	  0.1000	  7.9875	   7.987	  95.815
 1598	  0.1000	  7.9925	   7.992	  95.875
 1599	  0.1000	  7.9975	   7.997	  95.935
 1600	  0.1000	  8.0025	   8.002	  95.995
 1601	  0.1000	  8.0075	   8.007	  96.055
 1602	  0.1000	  8.0138	   8.014	  96.115
 1603	  0.1000	  8.0175	   8.017	  96.175
 1604	  0.1000	  8.0237	   8.024	  96.235
 1605	  0.1000	  8.0275	   8.028	  96.295
 1606	  0.1000	  8.0337	   8.034	  96.355
 1607	  0.1000	  8.0375	   8.037	  96.415
 1608	  0.1000	  8.0437	   8.044	  96.475
 1609	  0.1000	  8.0475	   8.047	  96.535
 1610	  0.1000	  8.0525	   8.052	  96.595
 1611	  0.1000	  8.0575	   8.057	  96.655
 1612	  0.1000	  8.0625	   8.062	  96.715
 1613	  0.1000	  8.0675	   8.068	  96.775
 1614	  0.1000	  8.0725	   8.073	  96.835
 1615	  0.1000	  8.0775	   8.077	  96.895
 1616	  0.1000	  8.0825	   8.082	  96.955
 1617	  0.1000	  8.0875	   8.087	  97.015
 1618	  0.1000	  8.0925	   8.092	  97.075
 1619	  0.1000	  8.0975	   8.097	  97.135
 1620	  0.1000	  8.1025	   8.102	  97.195
 1621	  0.1000	  8.1075	   8.108	  97.255
 1622	  0.1000	  8.1125	   8.113	  97.315
 1623	  0.1000	  8.1175	   8.117	  97.375
 1624	  0.1000	  8.1225	   8.122	  97.435
 1625	  0.1000	  8.1275	   8.127	  97.495
 1626	  0.1000	  8.1325	   8.132	  97.555
 1627	  0.1000	  8.1375	   8.137	  97.615
 1628	  0.1000	  8.1425	   8.142	  97.675
 1629	  0.1000	  8.1475	   8.148	  97.735
 1630	  0.1000	  8.1525	   8.153	  97.795
 1631	  0.1000	  8.1575	   8.158	  97.855
 1632	  0.1000	  8.1625	   8.162	  97.915
 1633	  0.1000	  8.1675	   8.167	  97.975
 1634	  0.1000	  8.1725	   8.172	  98.035
 1635	  0.1000	  8.1775	   8.177	  98.095
 1636	  0.1000	  8.1825	   8.182	  98.155
 1637	  0.1000	  8.1875	   8.188	  98.215
 1638	  0.1000	  8.1925	   8.193	  98.275
 1639	  0.1000	  8.1975	   8.198	  98.335
 1640	  0.1000	  8.2025	   8.202	  98.395
ControlMode:	0
Rate:	  5.0000
(null)
4
step	1
0
5.000000
0.000000
1
1
0.500000
2
step	2
1
5.000000
0.000000
1
1
2.000000
3
step	3
5
2.000000
0.000000
1
0
30.000000
4
step	4
8
0.000000
0.000000
0
0
0.000000
0
2
