0
Diameter:	   3.00
   6.00
Area:	  18.0000
Gauge:	  25.00
2009-1-20
Polimero
amostra 20mm/min
DataNumber:	3772
Order	Load(kN)	Defor(mm)	Stroke(mm)	Time(s)
    0	  0.0000	  0.0000	   0.000	   0.000
    1	  0.0000	  0.0225	   0.022	   0.055
    2	  0.0200	  0.0712	   0.071	   0.115
    3	  0.0200	  0.1212	   0.121	   0.175
    4	  0.0200	  0.1713	   0.171	   0.235
    5	  0.0600	  0.2212	   0.221	   0.295
    6	  0.0800	  0.2712	   0.271	   0.355
    7	  0.1000	  0.3212	   0.321	   0.415
    8	  0.1200	  0.3713	   0.371	   0.475
    9	  0.1400	  0.4212	   0.421	   0.535
   10	  0.1600	  0.4712	   0.471	   0.595
   11	  0.1800	  0.5213	   0.521	   0.655
   12	  0.2000	  0.5712	   0.571	   0.715
   13	  0.2200	  0.6212	   0.621	   0.775
   14	  0.2400	  0.6712	   0.671	   0.835
   15	  0.2400	  0.7212	   0.721	   0.895
   16	  0.2600	  0.7713	   0.771	   0.955
   17	  0.2800	  0.8212	   0.821	   1.015
   18	  0.2800	  0.8712	   0.871	   1.075
   19	  0.3000	  0.9200	   0.920	   1.135
   20	  0.3000	  0.9712	   0.971	   1.195
   21	  0.3200	  1.0213	   1.021	   1.255
   22	  0.3200	  1.0712	   1.071	   1.315
   23	  0.3400	  1.1213	   1.121	   1.375
   24	  0.3400	  1.1712	   1.171	   1.435
   25	  0.3600	  1.2212	   1.221	   1.495
   26	  0.3600	  1.2713	   1.271	   1.555
   27	  0.3600	  1.3212	   1.321	   1.615
   28	  0.3800	  1.3712	   1.371	   1.675
   29	  0.3800	  1.4225	   1.423	   1.735
   30	  0.3800	  1.4725	   1.472	   1.795
   31	  0.4000	  1.5225	   1.522	   1.855
   32	  0.4000	  1.5725	   1.572	   1.915
   33	  0.4000	  1.6237	   1.624	   1.975
   34	  0.4000	  1.6725	   1.673	   2.035
   35	  0.4200	  1.7225	   1.722	   2.095
   36	  0.4200	  1.7737	   1.774	   2.155
   37	  0.4200	  1.8237	   1.824	   2.215
   38	  0.4200	  1.8737	   1.874	   2.275
   39	  0.4200	  1.9237	   1.924	   2.335
   40	  0.4400	  1.9737	   1.974	   2.395
   41	  0.4400	  2.0238	   2.024	   2.455
   42	  0.4400	  2.0738	   2.074	   2.515
   43	  0.4400	  2.1237	   2.124	   2.575
   44	  0.4400	  2.1737	   2.174	   2.635
   45	  0.4400	  2.2237	   2.224	   2.695
   46	  0.4400	  2.2738	   2.274	   2.755
   47	  0.4400	  2.3238	   2.324	   2.815
   48	  0.4400	  2.3737	   2.374	   2.875
   49	  0.4600	  2.4250	   2.425	   2.935
   50	  0.4600	  2.4737	   2.474	   2.995
   51	  0.4600	  2.5237	   2.524	   3.055
   52	  0.4600	  2.5750	   2.575	   3.115
   53	  0.4600	  2.6250	   2.625	   3.175
   54	  0.4600	  2.6750	   2.675	   3.235
   55	  0.4600	  2.7250	   2.725	   3.295
   56	  0.4600	  2.7762	   2.776	   3.355
   57	  0.4600	  2.8250	   2.825	   3.415
   58	  0.4600	  2.8763	   2.876	   3.475
   59	  0.4600	  2.9262	   2.926	   3.535
   60	  0.4600	  2.9762	   2.976	   3.595
   61	  0.4600	  3.0262	   3.026	   3.655
   62	  0.4600	  3.0762	   3.076	   3.715
   63	  0.4600	  3.1275	   3.127	   3.775
   64	  0.4600	  3.1762	   3.176	   3.835
   65	  0.4600	  3.2275	   3.227	   3.895
   66	  0.4600	  3.2775	   3.277	   3.955
   67	  0.4600	  3.3275	   3.327	   4.015
   68	  0.4600	  3.3775	   3.377	   4.075
   69	  0.4600	  3.4275	   3.428	   4.135
   70	  0.4600	  3.4787	   3.479	   4.195
   71	  0.4600	  3.5275	   3.527	   4.255
   72	  0.4600	  3.5787	   3.579	   4.315
   73	  0.4600	  3.6287	   3.629	   4.375
   74	  0.4600	  3.6800	   3.680	   4.435
   75	  0.4600	  3.7300	   3.730	   4.495
   76	  0.4400	  3.7787	   3.779	   4.555
   77	  0.4400	  3.8300	   3.830	   4.615
   78	  0.4400	  3.8800	   3.880	   4.675
   79	  0.4400	  3.9300	   3.930	   4.735
   80	  0.4400	  3.9800	   3.980	   4.795
   81	  0.4400	  4.0312	   4.031	   4.855
   82	  0.4400	  4.0812	   4.081	   4.915
   83	  0.4400	  4.1312	   4.131	   4.975
   84	  0.4400	  4.1813	   4.181	   5.035
   85	  0.4400	  4.2312	   4.231	   5.095
   86	  0.4400	  4.2825	   4.282	   5.155
   87	  0.4400	  4.3325	   4.332	   5.215
   88	  0.4400	  4.3825	   4.382	   5.275
   89	  0.4400	  4.4325	   4.432	   5.335
   90	  0.4400	  4.4837	   4.484	   5.395
   91	  0.4400	  4.5338	   4.534	   5.455
   92	  0.4400	  4.5850	   4.585	   5.515
   93	  0.4200	  4.6350	   4.635	   5.575
   94	  0.4200	  4.6850	   4.685	   5.635
   95	  0.4200	  4.7350	   4.735	   5.695
   96	  0.4200	  4.7850	   4.785	   5.755
   97	  0.4200	  4.8362	   4.836	   5.815
   98	  0.4200	  4.8863	   4.886	   5.875
   99	  0.4200	  4.9375	   4.938	   5.935
  100	  0.4200	  4.9875	   4.987	   5.995
  101	  0.4200	  5.0363	   5.036	   6.055
  102	  0.4200	  5.0875	   5.088	   6.115
  103	  0.4200	  5.1375	   5.137	   6.175
  104	  0.4200	  5.1875	   5.188	   6.235
  105	  0.4200	  5.2375	   5.237	   6.295
  106	  0.4200	  5.2887	   5.289	   6.355
  107	  0.4000	  5.3387	   5.339	   6.415
  108	  0.4200	  5.3888	   5.389	   6.475
  109	  0.4200	  5.4387	   5.439	   6.535
  110	  0.4000	  5.4887	   5.489	   6.595
  111	  0.4000	  5.5400	   5.540	   6.655
  112	  0.4000	  5.5900	   5.590	   6.715
  113	  0.4000	  5.6400	   5.640	   6.775
  114	  0.4000	  5.6900	   5.690	   6.835
  115	  0.4000	  5.7400	   5.740	   6.895
  116	  0.4000	  5.7900	   5.790	   6.955
  117	  0.4000	  5.8412	   5.841	   7.015
  118	  0.4000	  5.8912	   5.891	   7.075
  119	  0.4000	  5.9400	   5.940	   7.135
  120	  0.4000	  5.9913	   5.991	   7.195
  121	  0.4000	  6.0412	   6.041	   7.255
  122	  0.4000	  6.0912	   6.091	   7.315
  123	  0.4000	  6.1412	   6.141	   7.375
  124	  0.4000	  6.1925	   6.192	   7.435
  125	  0.4000	  6.2425	   6.242	   7.495
  126	  0.3800	  6.2912	   6.291	   7.555
  127	  0.3800	  6.3425	   6.342	   7.615
  128	  0.4000	  6.3925	   6.392	   7.675
  129	  0.3800	  6.4400	   6.440	   7.735
  130	  0.3800	  6.4900	   6.490	   7.795
  131	  0.3800	  6.5412	   6.541	   7.855
  132	  0.3800	  6.5900	   6.590	   7.915
  133	  0.3800	  6.6412	   6.641	   7.975
  134	  0.3800	  6.6912	   6.691	   8.035
  135	  0.3800	  6.7413	   6.741	   8.095
  136	  0.3800	  6.7912	   6.791	   8.155
  137	  0.3800	  6.8425	   6.842	   8.215
  138	  0.3800	  6.8925	   6.892	   8.275
  139	  0.3800	  6.9425	   6.942	   8.335
  140	  0.3800	  6.9937	   6.994	   8.395
  141	  0.3800	  7.0437	   7.044	   8.455
  142	  0.3800	  7.0938	   7.094	   8.515
  143	  0.3800	  7.1437	   7.144	   8.575
  144	  0.3800	  7.1937	   7.194	   8.635
  145	  0.3800	  7.2437	   7.244	   8.695
  146	  0.3800	  7.2925	   7.293	   8.755
  147	  0.3800	  7.3425	   7.342	   8.815
  148	  0.3800	  7.3925	   7.392	   8.875
  149	  0.3600	  7.4437	   7.444	   8.935
  150	  0.3800	  7.4937	   7.494	   8.995
  151	  0.3600	  7.5437	   7.544	   9.055
  152	  0.3600	  7.5938	   7.594	   9.115
  153	  0.3600	  7.6437	   7.644	   9.175
  154	  0.3600	  7.6950	   7.695	   9.235
  155	  0.3600	  7.7450	   7.745	   9.295
  156	  0.3600	  7.7950	   7.795	   9.355
  157	  0.3600	  7.8450	   7.845	   9.415
  158	  0.3600	  7.8950	   7.895	   9.475
  159	  0.3600	  7.9450	   7.945	   9.535
  160	  0.3600	  7.9950	   7.995	   9.595
  161	  0.3600	  8.0462	   8.046	   9.655
  162	  0.3600	  8.0950	   8.095	   9.715
  163	  0.3600	  8.1462	   8.146	   9.775
  164	  0.3600	  8.1962	   8.196	   9.835
  165	  0.3600	  8.2475	   8.247	   9.895
  166	  0.3600	  8.2975	   8.297	   9.955
  167	  0.3600	  8.3475	   8.347	  10.015
  168	  0.3400	  8.3975	   8.398	  10.075
  169	  0.3400	  8.4475	   8.448	  10.135
  170	  0.3400	  8.4987	   8.499	  10.195
  171	  0.3600	  8.5487	   8.549	  10.255
  172	  0.3400	  8.5988	   8.599	  10.315
  173	  0.3400	  8.6487	   8.649	  10.375
  174	  0.3400	  8.6987	   8.699	  10.435
  175	  0.3400	  8.7487	   8.749	  10.495
  176	  0.3400	  8.7987	   8.799	  10.555
  177	  0.3400	  8.8500	   8.850	  10.615
  178	  0.3400	  8.9000	   8.900	  10.675
  179	  0.3400	  8.9500	   8.950	  10.735
  180	  0.3400	  9.0000	   9.000	  10.795
  181	  0.3400	  9.0512	   9.051	  10.855
  182	  0.3400	  9.1012	   9.101	  10.915
  183	  0.3400	  9.1512	   9.151	  10.975
  184	  0.3400	  9.2013	   9.201	  11.035
  185	  0.3400	  9.2513	   9.251	  11.095
  186	  0.3400	  9.3012	   9.301	  11.155
  187	  0.3400	  9.3512	   9.351	  11.215
  188	  0.3400	  9.4025	   9.403	  11.275
  189	  0.3200	  9.4513	   9.451	  11.335
  190	  0.3200	  9.5012	   9.501	  11.395
  191	  0.3200	  9.5512	   9.551	  11.455
  192	  0.3200	  9.6025	   9.602	  11.515
  193	  0.3200	  9.6525	   9.653	  11.575
  194	  0.3200	  9.7013	   9.701	  11.635
  195	  0.3200	  9.7525	   9.752	  11.695
  196	  0.3200	  9.8025	   9.802	  11.755
  197	  0.3200	  9.8525	   9.852	  11.815
  198	  0.3200	  9.9025	   9.903	  11.875
  199	  0.3200	  9.9537	   9.954	  11.935
  200	  0.3200	 10.0037	  10.004	  11.995
  201	  0.3200	 10.0525	  10.052	  12.055
  202	  0.3200	 10.1038	  10.104	  12.115
  203	  0.3200	 10.1537	  10.154	  12.175
  204	  0.3200	 10.2025	  10.202	  12.235
  205	  0.3200	 10.2525	  10.252	  12.295
  206	  0.3000	 10.3038	  10.304	  12.355
  207	  0.3000	 10.3525	  10.352	  12.415
  208	  0.3000	 10.4037	  10.404	  12.475
  209	  0.3000	 10.4537	  10.454	  12.535
  210	  0.3000	 10.5037	  10.504	  12.595
  211	  0.3000	 10.5538	  10.554	  12.655
  212	  0.3000	 10.6025	  10.602	  12.715
  213	  0.3000	 10.6537	  10.654	  12.775
  214	  0.3000	 10.7037	  10.704	  12.835
  215	  0.3000	 10.7537	  10.754	  12.895
  216	  0.3000	 10.8038	  10.804	  12.955
  217	  0.3000	 10.8538	  10.854	  13.015
  218	  0.3000	 10.9037	  10.904	  13.075
  219	  0.2800	 10.9537	  10.954	  13.135
  220	  0.2800	 11.0050	  11.005	  13.195
  221	  0.2800	 11.0538	  11.054	  13.255
  222	  0.2800	 11.1050	  11.105	  13.315
  223	  0.2800	 11.1550	  11.155	  13.375
  224	  0.2800	 11.2050	  11.205	  13.435
  225	  0.2800	 11.2550	  11.255	  13.495
  226	  0.2800	 11.3050	  11.305	  13.555
  227	  0.2800	 11.3550	  11.355	  13.615
  228	  0.2800	 11.4050	  11.405	  13.675
  229	  0.2600	 11.4563	  11.456	  13.735
  230	  0.2600	 11.5050	  11.505	  13.795
  231	  0.2600	 11.5550	  11.555	  13.855
  232	  0.2600	 11.6050	  11.605	  13.915
  233	  0.2600	 11.6550	  11.655	  13.975
  234	  0.2600	 11.7050	  11.705	  14.035
  235	  0.2600	 11.7550	  11.755	  14.095
  236	  0.2600	 11.8062	  11.806	  14.155
  237	  0.2600	 11.8550	  11.855	  14.215
  238	  0.2400	 11.9062	  11.906	  14.275
  239	  0.2400	 11.9563	  11.956	  14.335
  240	  0.2400	 12.0075	  12.007	  14.395
  241	  0.2400	 12.0562	  12.056	  14.455
  242	  0.2400	 12.1075	  12.108	  14.515
  243	  0.2400	 12.1575	  12.157	  14.575
  244	  0.2400	 12.2075	  12.207	  14.635
  245	  0.2400	 12.2575	  12.257	  14.695
  246	  0.2400	 12.3075	  12.307	  14.755
  247	  0.2400	 12.3575	  12.358	  14.815
  248	  0.2400	 12.4075	  12.407	  14.875
  249	  0.2400	 12.4587	  12.459	  14.935
  250	  0.2200	 12.5087	  12.509	  14.995
  251	  0.2200	 12.5588	  12.559	  15.055
  252	  0.2200	 12.6087	  12.609	  15.115
  253	  0.2200	 12.6587	  12.659	  15.175
  254	  0.2200	 12.7100	  12.710	  15.235
  255	  0.2200	 12.7587	  12.759	  15.295
  256	  0.2200	 12.8100	  12.810	  15.355
  257	  0.2200	 12.8600	  12.860	  15.415
  258	  0.2200	 12.9100	  12.910	  15.475
  259	  0.2200	 12.9600	  12.960	  15.535
  260	  0.2200	 13.0100	  13.010	  15.595
  261	  0.2200	 13.0612	  13.061	  15.655
  262	  0.2200	 13.1112	  13.111	  15.715
  263	  0.2200	 13.1625	  13.162	  15.775
  264	  0.2200	 13.2125	  13.212	  15.835
  265	  0.2200	 13.2625	  13.262	  15.895
  266	  0.2200	 13.3125	  13.312	  15.955
  267	  0.2200	 13.3637	  13.364	  16.015
  268	  0.2200	 13.4137	  13.414	  16.075
  269	  0.2200	 13.4625	  13.462	  16.135
  270	  0.2200	 13.5138	  13.514	  16.195
  271	  0.2200	 13.5637	  13.564	  16.255
  272	  0.2200	 13.6137	  13.614	  16.315
  273	  0.2200	 13.6637	  13.664	  16.375
  274	  0.2200	 13.7150	  13.715	  16.435
  275	  0.2200	 13.7650	  13.765	  16.495
  276	  0.2200	 13.8150	  13.815	  16.555
  277	  0.2200	 13.8650	  13.865	  16.615
  278	  0.2200	 13.9150	  13.915	  16.675
  279	  0.2200	 13.9650	  13.965	  16.735
  280	  0.2200	 14.0150	  14.015	  16.795
  281	  0.2200	 14.0662	  14.066	  16.855
  282	  0.2200	 14.1163	  14.116	  16.915
  283	  0.2200	 14.1662	  14.166	  16.975
  284	  0.2200	 14.2162	  14.216	  17.035
  285	  0.2200	 14.2662	  14.266	  17.095
  286	  0.2200	 14.3175	  14.318	  17.155
  287	  0.2200	 14.3663	  14.366	  17.215
  288	  0.2200	 14.4175	  14.417	  17.275
  289	  0.2200	 14.4662	  14.466	  17.335
  290	  0.2200	 14.5175	  14.517	  17.395
  291	  0.2200	 14.5675	  14.568	  17.455
  292	  0.2200	 14.6175	  14.617	  17.515
  293	  0.2200	 14.6675	  14.667	  17.575
  294	  0.2200	 14.7175	  14.717	  17.635
  295	  0.2200	 14.7675	  14.767	  17.695
  296	  0.2200	 14.8175	  14.818	  17.755
  297	  0.2200	 14.8675	  14.867	  17.815
  298	  0.2200	 14.9175	  14.917	  17.875
  299	  0.2200	 14.9688	  14.969	  17.935
  300	  0.2200	 15.0187	  15.019	  17.995
  301	  0.2200	 15.0675	  15.068	  18.055
  302	  0.2200	 15.1187	  15.119	  18.115
  303	  0.2200	 15.1687	  15.169	  18.175
  304	  0.2200	 15.2200	  15.220	  18.235
  305	  0.2200	 15.2687	  15.269	  18.295
  306	  0.2200	 15.3200	  15.320	  18.355
  307	  0.2200	 15.3700	  15.370	  18.415
  308	  0.2200	 15.4200	  15.420	  18.475
  309	  0.2200	 15.4700	  15.470	  18.535
  310	  0.2200	 15.5200	  15.520	  18.595
  311	  0.2200	 15.5700	  15.570	  18.655
  312	  0.2200	 15.6200	  15.620	  18.715
  313	  0.2200	 15.6700	  15.670	  18.775
  314	  0.2200	 15.7200	  15.720	  18.835
  315	  0.2200	 15.7712	  15.771	  18.895
  316	  0.2200	 15.8212	  15.821	  18.955
  317	  0.2200	 15.8712	  15.871	  19.015
  318	  0.2200	 15.9212	  15.921	  19.075
  319	  0.2200	 15.9712	  15.971	  19.135
  320	  0.2200	 16.0187	  16.019	  19.195
  321	  0.2200	 16.0688	  16.069	  19.255
  322	  0.2200	 16.1187	  16.119	  19.315
  323	  0.2200	 16.1687	  16.169	  19.375
  324	  0.2200	 16.2200	  16.220	  19.435
  325	  0.2200	 16.2700	  16.270	  19.495
  326	  0.2200	 16.3200	  16.320	  19.555
  327	  0.2200	 16.3700	  16.370	  19.615
  328	  0.2200	 16.4200	  16.420	  19.675
  329	  0.2200	 16.4713	  16.471	  19.735
  330	  0.2200	 16.5200	  16.520	  19.795
  331	  0.2200	 16.5712	  16.571	  19.855
  332	  0.2200	 16.6213	  16.621	  19.915
  333	  0.2200	 16.6712	  16.671	  19.975
  334	  0.2200	 16.7213	  16.721	  20.035
  335	  0.2200	 16.7712	  16.771	  20.095
  336	  0.2200	 16.8225	  16.823	  20.155
  337	  0.2200	 16.8725	  16.872	  20.215
  338	  0.2200	 16.9225	  16.922	  20.275
  339	  0.2200	 16.9725	  16.972	  20.335
  340	  0.2200	 17.0238	  17.024	  20.395
  341	  0.2200	 17.0737	  17.074	  20.455
  342	  0.2200	 17.1237	  17.124	  20.515
  343	  0.2200	 17.1737	  17.174	  20.575
  344	  0.2200	 17.2237	  17.224	  20.635
  345	  0.2200	 17.2750	  17.275	  20.695
  346	  0.2200	 17.3250	  17.325	  20.755
  347	  0.2200	 17.3750	  17.375	  20.815
  348	  0.2200	 17.4263	  17.426	  20.875
  349	  0.2200	 17.4762	  17.476	  20.935
  350	  0.2200	 17.5262	  17.526	  20.995
  351	  0.2200	 17.5763	  17.576	  21.055
  352	  0.2200	 17.6262	  17.626	  21.115
  353	  0.2200	 17.6763	  17.676	  21.175
  354	  0.2200	 17.7275	  17.727	  21.235
  355	  0.2200	 17.7762	  17.776	  21.295
  356	  0.2200	 17.8263	  17.826	  21.355
  357	  0.2200	 17.8762	  17.876	  21.415
  358	  0.2200	 17.9275	  17.927	  21.475
  359	  0.2200	 17.9775	  17.977	  21.535
  360	  0.2200	 18.0262	  18.026	  21.595
  361	  0.2200	 18.0775	  18.077	  21.655
  362	  0.2200	 18.1275	  18.128	  21.715
  363	  0.2200	 18.1787	  18.179	  21.775
  364	  0.2200	 18.2275	  18.227	  21.835
  365	  0.2200	 18.2787	  18.279	  21.895
  366	  0.2200	 18.3287	  18.329	  21.955
  367	  0.2200	 18.3787	  18.379	  22.015
  368	  0.2200	 18.4275	  18.427	  22.075
  369	  0.2200	 18.4775	  18.477	  22.135
  370	  0.2200	 18.5287	  18.529	  22.195
  371	  0.2200	 18.5787	  18.579	  22.255
  372	  0.2200	 18.6287	  18.629	  22.315
  373	  0.2200	 18.6787	  18.679	  22.375
  374	  0.2200	 18.7288	  18.729	  22.435
  375	  0.2200	 18.7787	  18.779	  22.495
  376	  0.2200	 18.8287	  18.829	  22.555
  377	  0.2200	 18.8787	  18.879	  22.615
  378	  0.2200	 18.9287	  18.929	  22.675
  379	  0.2200	 18.9788	  18.979	  22.735
  380	  0.2200	 19.0287	  19.029	  22.795
  381	  0.2200	 19.0787	  19.079	  22.855
  382	  0.2200	 19.1287	  19.129	  22.915
  383	  0.2200	 19.1787	  19.179	  22.975
  384	  0.2200	 19.2288	  19.229	  23.035
  385	  0.2200	 19.2787	  19.279	  23.095
  386	  0.2200	 19.3300	  19.330	  23.155
  387	  0.2200	 19.3787	  19.379	  23.215
  388	  0.2200	 19.4300	  19.430	  23.275
  389	  0.2200	 19.4788	  19.479	  23.335
  390	  0.2200	 19.5300	  19.530	  23.395
  391	  0.2200	 19.5800	  19.580	  23.455
  392	  0.2200	 19.6300	  19.630	  23.515
  393	  0.2200	 19.6800	  19.680	  23.575
  394	  0.2200	 19.7300	  19.730	  23.635
  395	  0.2200	 19.7800	  19.780	  23.695
  396	  0.2200	 19.8300	  19.830	  23.755
  397	  0.2200	 19.8800	  19.880	  23.815
  398	  0.2200	 19.9300	  19.930	  23.875
  399	  0.2200	 19.9800	  19.980	  23.935
  400	  0.2200	 20.0300	  20.030	  23.995
  401	  0.2200	 20.0800	  20.080	  24.055
  402	  0.2200	 20.1300	  20.130	  24.115
  403	  0.2200	 20.1800	  20.180	  24.175
  404	  0.2200	 20.2312	  20.231	  24.235
  405	  0.2200	 20.2812	  20.281	  24.295
  406	  0.2200	 20.3312	  20.331	  24.355
  407	  0.2200	 20.3813	  20.381	  24.415
  408	  0.2200	 20.4325	  20.432	  24.475
  409	  0.2200	 20.4812	  20.481	  24.535
  410	  0.2200	 20.5312	  20.531	  24.595
  411	  0.2200	 20.5825	  20.583	  24.655
  412	  0.2200	 20.6325	  20.632	  24.715
  413	  0.2200	 20.6825	  20.682	  24.775
  414	  0.2200	 20.7325	  20.733	  24.835
  415	  0.2200	 20.7837	  20.784	  24.895
  416	  0.2200	 20.8325	  20.833	  24.955
  417	  0.2200	 20.8825	  20.882	  25.015
  418	  0.2200	 20.9325	  20.932	  25.075
  419	  0.2200	 20.9825	  20.983	  25.135
  420	  0.2200	 21.0337	  21.034	  25.195
  421	  0.2200	 21.0825	  21.083	  25.255
  422	  0.2200	 21.1337	  21.134	  25.315
  423	  0.2200	 21.1838	  21.184	  25.375
  424	  0.2200	 21.2337	  21.234	  25.435
  425	  0.2200	 21.2837	  21.284	  25.495
  426	  0.2200	 21.3337	  21.334	  25.555
  427	  0.2200	 21.3850	  21.385	  25.615
  428	  0.2200	 21.4350	  21.435	  25.675
  429	  0.2200	 21.4850	  21.485	  25.735
  430	  0.2200	 21.5350	  21.535	  25.795
  431	  0.2200	 21.5863	  21.586	  25.855
  432	  0.2200	 21.6362	  21.636	  25.915
  433	  0.2200	 21.6875	  21.688	  25.975
  434	  0.2200	 21.7362	  21.736	  26.035
  435	  0.2200	 21.7862	  21.786	  26.095
  436	  0.2200	 21.8375	  21.837	  26.155
  437	  0.2200	 21.8862	  21.886	  26.215
  438	  0.2200	 21.9375	  21.938	  26.275
  439	  0.2200	 21.9875	  21.987	  26.335
  440	  0.2200	 22.0375	  22.038	  26.395
  441	  0.2200	 22.0875	  22.087	  26.455
  442	  0.2200	 22.1375	  22.137	  26.515
  443	  0.2200	 22.1875	  22.188	  26.575
  444	  0.2200	 22.2375	  22.237	  26.635
  445	  0.2200	 22.2875	  22.288	  26.695
  446	  0.2200	 22.3375	  22.337	  26.755
  447	  0.2200	 22.3888	  22.389	  26.815
  448	  0.2200	 22.4387	  22.439	  26.875
  449	  0.2200	 22.4887	  22.489	  26.935
  450	  0.2200	 22.5387	  22.539	  26.995
  451	  0.2200	 22.5887	  22.589	  27.055
  452	  0.2200	 22.6388	  22.639	  27.115
  453	  0.2200	 22.6887	  22.689	  27.175
  454	  0.2200	 22.7400	  22.740	  27.235
  455	  0.2200	 22.7887	  22.789	  27.295
  456	  0.2200	 22.8400	  22.840	  27.355
  457	  0.2200	 22.8900	  22.890	  27.415
  458	  0.2200	 22.9400	  22.940	  27.475
  459	  0.2200	 22.9900	  22.990	  27.535
  460	  0.2200	 23.0400	  23.040	  27.595
  461	  0.2200	 23.0900	  23.090	  27.655
  462	  0.2200	 23.1400	  23.140	  27.715
  463	  0.2200	 23.1900	  23.190	  27.775
  464	  0.2200	 23.2400	  23.240	  27.835
  465	  0.2200	 23.2913	  23.291	  27.895
  466	  0.2200	 23.3400	  23.340	  27.955
  467	  0.2200	 23.3912	  23.391	  28.015
  468	  0.2200	 23.4412	  23.441	  28.075
  469	  0.2200	 23.4912	  23.491	  28.135
  470	  0.2200	 23.5413	  23.541	  28.195
  471	  0.2200	 23.5912	  23.591	  28.255
  472	  0.2200	 23.6425	  23.642	  28.315
  473	  0.2200	 23.6925	  23.692	  28.375
  474	  0.2200	 23.7425	  23.743	  28.435
  475	  0.2200	 23.7925	  23.792	  28.495
  476	  0.2200	 23.8425	  23.842	  28.555
  477	  0.2200	 23.8937	  23.894	  28.615
  478	  0.2200	 23.9425	  23.942	  28.675
  479	  0.2200	 23.9937	  23.994	  28.735
  480	  0.2200	 24.0437	  24.044	  28.795
  481	  0.2200	 24.0938	  24.094	  28.855
  482	  0.2200	 24.1437	  24.144	  28.915
  483	  0.2200	 24.1938	  24.194	  28.975
  484	  0.2200	 24.2437	  24.244	  29.035
  485	  0.2200	 24.2937	  24.294	  29.095
  486	  0.2200	 24.3450	  24.345	  29.155
  487	  0.2200	 24.3950	  24.395	  29.215
  488	  0.2200	 24.4450	  24.445	  29.275
  489	  0.2200	 24.4950	  24.495	  29.335
  490	  0.2200	 24.5462	  24.546	  29.395
  491	  0.2200	 24.5962	  24.596	  29.455
  492	  0.2200	 24.6475	  24.647	  29.515
  493	  0.2200	 24.6975	  24.698	  29.575
  494	  0.2200	 24.7463	  24.746	  29.635
  495	  0.2200	 24.7975	  24.797	  29.695
  496	  0.2200	 24.8475	  24.847	  29.755
  497	  0.2200	 24.8975	  24.897	  29.815
  498	  0.2200	 24.9475	  24.948	  29.875
  499	  0.2200	 24.9987	  24.999	  29.935
  500	  0.2200	 25.0475	  25.047	  29.995
  501	  0.2200	 25.0975	  25.097	  30.055
  502	  0.2200	 25.1488	  25.149	  30.115
  503	  0.2200	 25.1987	  25.199	  30.175
  504	  0.2200	 25.2487	  25.249	  30.235
  505	  0.2200	 25.2987	  25.299	  30.295
  506	  0.2200	 25.3487	  25.349	  30.355
  507	  0.2200	 25.3988	  25.399	  30.415
  508	  0.2200	 25.4487	  25.449	  30.475
  509	  0.2200	 25.4987	  25.499	  30.535
  510	  0.2200	 25.5487	  25.549	  30.595
  511	  0.2200	 25.6000	  25.600	  30.655
  512	  0.2200	 25.6500	  25.650	  30.715
  513	  0.2200	 25.7000	  25.700	  30.775
  514	  0.2200	 25.7500	  25.750	  30.835
  515	  0.2200	 25.8012	  25.801	  30.895
  516	  0.2200	 25.8512	  25.851	  30.955
  517	  0.2200	 25.9012	  25.901	  31.015
  518	  0.2200	 25.9513	  25.951	  31.075
  519	  0.2200	 26.0012	  26.001	  31.135
  520	  0.2200	 26.0525	  26.052	  31.195
  521	  0.2200	 26.1012	  26.101	  31.255
  522	  0.2200	 26.1525	  26.153	  31.315
  523	  0.2200	 26.2025	  26.202	  31.375
  524	  0.2200	 26.2537	  26.254	  31.435
  525	  0.2200	 26.3025	  26.302	  31.495
  526	  0.2200	 26.3525	  26.352	  31.555
  527	  0.2200	 26.4025	  26.403	  31.615
  528	  0.2200	 26.4537	  26.454	  31.675
  529	  0.2200	 26.5037	  26.504	  31.735
  530	  0.2200	 26.5537	  26.554	  31.795
  531	  0.2200	 26.6050	  26.605	  31.855
  532	  0.2200	 26.6550	  26.655	  31.915
  533	  0.2200	 26.7050	  26.705	  31.975
  534	  0.2200	 26.7525	  26.752	  32.035
  535	  0.2200	 26.8025	  26.802	  32.095
  536	  0.2200	 26.8538	  26.854	  32.155
  537	  0.2200	 26.9025	  26.903	  32.215
  538	  0.2200	 26.9537	  26.954	  32.275
  539	  0.2200	 27.0037	  27.004	  32.335
  540	  0.2200	 27.0537	  27.054	  32.395
  541	  0.2200	 27.1038	  27.104	  32.455
  542	  0.2200	 27.1550	  27.155	  32.515
  543	  0.2200	 27.2037	  27.204	  32.575
  544	  0.2200	 27.2537	  27.254	  32.635
  545	  0.2200	 27.3050	  27.305	  32.695
  546	  0.2200	 27.3538	  27.354	  32.755
  547	  0.2200	 27.4050	  27.405	  32.815
  548	  0.2200	 27.4537	  27.454	  32.875
  549	  0.2200	 27.5037	  27.504	  32.935
  550	  0.2200	 27.5537	  27.554	  32.995
  551	  0.2200	 27.6038	  27.604	  33.055
  552	  0.2200	 27.6550	  27.655	  33.115
  553	  0.2200	 27.7037	  27.704	  33.175
  554	  0.2200	 27.7550	  27.755	  33.235
  555	  0.2200	 27.8050	  27.805	  33.295
  556	  0.2200	 27.8550	  27.855	  33.355
  557	  0.2200	 27.9050	  27.905	  33.415
  558	  0.2200	 27.9562	  27.956	  33.475
  559	  0.2200	 28.0062	  28.006	  33.535
  560	  0.2200	 28.0550	  28.055	  33.595
  561	  0.2200	 28.1062	  28.106	  33.655
  562	  0.2200	 28.1562	  28.156	  33.715
  563	  0.2200	 28.2050	  28.205	  33.775
  564	  0.2200	 28.2550	  28.255	  33.835
  565	  0.2200	 28.3062	  28.306	  33.895
  566	  0.2200	 28.3562	  28.356	  33.955
  567	  0.2200	 28.4062	  28.406	  34.015
  568	  0.2200	 28.4562	  28.456	  34.075
  569	  0.2200	 28.5050	  28.505	  34.135
  570	  0.2200	 28.5562	  28.556	  34.195
  571	  0.2200	 28.6062	  28.606	  34.255
  572	  0.2200	 28.6562	  28.656	  34.315
  573	  0.2200	 28.7062	  28.706	  34.375
  574	  0.2200	 28.7575	  28.757	  34.435
  575	  0.2200	 28.8075	  28.807	  34.495
  576	  0.2200	 28.8575	  28.858	  34.555
  577	  0.2200	 28.9087	  28.909	  34.615
  578	  0.2200	 28.9587	  28.959	  34.675
  579	  0.2200	 29.0087	  29.009	  34.735
  580	  0.2200	 29.0575	  29.057	  34.795
  581	  0.2200	 29.1087	  29.109	  34.855
  582	  0.2200	 29.1587	  29.159	  34.915
  583	  0.2200	 29.2087	  29.209	  34.975
  584	  0.2200	 29.2587	  29.259	  35.035
  585	  0.2200	 29.3088	  29.309	  35.095
  586	  0.2200	 29.3587	  29.359	  35.155
  587	  0.2200	 29.4087	  29.409	  35.215
  588	  0.2200	 29.4587	  29.459	  35.275
  589	  0.2200	 29.5087	  29.509	  35.335
  590	  0.2200	 29.5600	  29.560	  35.395
  591	  0.2200	 29.6100	  29.610	  35.455
  592	  0.2200	 29.6600	  29.660	  35.515
  593	  0.2200	 29.7100	  29.710	  35.575
  594	  0.2200	 29.7600	  29.760	  35.635
  595	  0.2200	 29.8112	  29.811	  35.695
  596	  0.2200	 29.8612	  29.861	  35.755
  597	  0.2200	 29.9112	  29.911	  35.815
  598	  0.2200	 29.9600	  29.960	  35.875
  599	  0.2200	 30.0112	  30.011	  35.935
  600	  0.2200	 30.0612	  30.061	  35.995
  601	  0.2200	 30.1112	  30.111	  36.055
  602	  0.2200	 30.1612	  30.161	  36.115
  603	  0.2200	 30.2112	  30.211	  36.175
  604	  0.2200	 30.2612	  30.261	  36.235
  605	  0.2200	 30.3112	  30.311	  36.295
  606	  0.2200	 30.3612	  30.361	  36.355
  607	  0.2200	 30.4112	  30.411	  36.415
  608	  0.2200	 30.4625	  30.462	  36.475
  609	  0.2200	 30.5125	  30.512	  36.535
  610	  0.2200	 30.5625	  30.562	  36.595
  611	  0.2200	 30.6125	  30.612	  36.655
  612	  0.2200	 30.6625	  30.662	  36.715
  613	  0.2200	 30.7137	  30.714	  36.775
  614	  0.2200	 30.7625	  30.762	  36.835
  615	  0.2200	 30.8137	  30.814	  36.895
  616	  0.2200	 30.8637	  30.864	  36.955
  617	  0.2200	 30.9137	  30.914	  37.015
  618	  0.2200	 30.9637	  30.964	  37.075
  619	  0.2200	 31.0138	  31.014	  37.135
  620	  0.2200	 31.0637	  31.064	  37.195
  621	  0.2200	 31.1137	  31.114	  37.255
  622	  0.2200	 31.1637	  31.164	  37.315
  623	  0.2200	 31.2137	  31.214	  37.375
  624	  0.2200	 31.2638	  31.264	  37.435
  625	  0.2200	 31.3137	  31.314	  37.495
  626	  0.2200	 31.3637	  31.364	  37.555
  627	  0.2200	 31.4137	  31.414	  37.615
  628	  0.2200	 31.4637	  31.464	  37.675
  629	  0.2200	 31.5138	  31.514	  37.735
  630	  0.2200	 31.5637	  31.564	  37.795
  631	  0.2200	 31.6150	  31.615	  37.855
  632	  0.2200	 31.6650	  31.665	  37.915
  633	  0.2200	 31.7150	  31.715	  37.975
  634	  0.2200	 31.7650	  31.765	  38.035
  635	  0.2200	 31.8150	  31.815	  38.095
  636	  0.2200	 31.8650	  31.865	  38.155
  637	  0.2200	 31.9150	  31.915	  38.215
  638	  0.2200	 31.9662	  31.966	  38.275
  639	  0.2200	 32.0163	  32.016	  38.335
  640	  0.2200	 32.0662	  32.066	  38.395
  641	  0.2200	 32.1162	  32.116	  38.455
  642	  0.2200	 32.1662	  32.166	  38.515
  643	  0.2200	 32.2162	  32.216	  38.575
  644	  0.2200	 32.2663	  32.266	  38.635
  645	  0.2200	 32.3175	  32.318	  38.695
  646	  0.2200	 32.3675	  32.368	  38.755
  647	  0.2200	 32.4175	  32.417	  38.815
  648	  0.2200	 32.4675	  32.467	  38.875
  649	  0.2200	 32.5175	  32.517	  38.935
  650	  0.2200	 32.5675	  32.568	  38.995
  651	  0.2200	 32.6175	  32.618	  39.055
  652	  0.2200	 32.6675	  32.667	  39.115
  653	  0.2200	 32.7175	  32.717	  39.175
  654	  0.2200	 32.7687	  32.769	  39.235
  655	  0.2200	 32.8187	  32.819	  39.295
  656	  0.2200	 32.8687	  32.869	  39.355
  657	  0.2200	 32.9188	  32.919	  39.415
  658	  0.2200	 32.9700	  32.970	  39.475
  659	  0.2200	 33.0200	  33.020	  39.535
  660	  0.2200	 33.0687	  33.069	  39.595
  661	  0.2200	 33.1200	  33.120	  39.655
  662	  0.2200	 33.1700	  33.170	  39.715
  663	  0.2200	 33.2212	  33.221	  39.775
  664	  0.2200	 33.2700	  33.270	  39.835
  665	  0.2200	 33.3213	  33.321	  39.895
  666	  0.2200	 33.3713	  33.371	  39.955
  667	  0.2200	 33.4212	  33.421	  40.015
  668	  0.2200	 33.4712	  33.471	  40.075
  669	  0.2200	 33.5212	  33.521	  40.135
  670	  0.2200	 33.5713	  33.571	  40.195
  671	  0.2200	 33.6213	  33.621	  40.255
  672	  0.2200	 33.6725	  33.673	  40.315
  673	  0.2200	 33.7225	  33.722	  40.375
  674	  0.2200	 33.7725	  33.772	  40.435
  675	  0.2200	 33.8225	  33.822	  40.495
  676	  0.2200	 33.8725	  33.872	  40.555
  677	  0.2200	 33.9237	  33.924	  40.615
  678	  0.2200	 33.9738	  33.974	  40.675
  679	  0.2200	 34.0238	  34.024	  40.735
  680	  0.2200	 34.0737	  34.074	  40.795
  681	  0.2200	 34.1250	  34.125	  40.855
  682	  0.2200	 34.1737	  34.174	  40.915
  683	  0.2200	 34.2250	  34.225	  40.975
  684	  0.2200	 34.2738	  34.274	  41.035
  685	  0.2200	 34.3237	  34.324	  41.095
  686	  0.2200	 34.3750	  34.375	  41.155
  687	  0.2200	 34.4250	  34.425	  41.215
  688	  0.2200	 34.4750	  34.475	  41.275
  689	  0.2200	 34.5250	  34.525	  41.335
  690	  0.2200	 34.5762	  34.576	  41.395
  691	  0.2200	 34.6250	  34.625	  41.455
  692	  0.2200	 34.6763	  34.676	  41.515
  693	  0.2200	 34.7262	  34.726	  41.575
  694	  0.2200	 34.7762	  34.776	  41.635
  695	  0.2200	 34.8262	  34.826	  41.695
  696	  0.2200	 34.8762	  34.876	  41.755
  697	  0.2200	 34.9275	  34.927	  41.815
  698	  0.2200	 34.9775	  34.978	  41.875
  699	  0.2200	 35.0275	  35.028	  41.935
  700	  0.2200	 35.0775	  35.077	  41.995
  701	  0.2200	 35.1275	  35.127	  42.055
  702	  0.2200	 35.1775	  35.177	  42.115
  703	  0.2200	 35.2262	  35.226	  42.175
  704	  0.2200	 35.2775	  35.278	  42.235
  705	  0.2200	 35.3275	  35.327	  42.295
  706	  0.2200	 35.3775	  35.377	  42.355
  707	  0.2200	 35.4275	  35.427	  42.415
  708	  0.2200	 35.4775	  35.478	  42.475
  709	  0.2200	 35.5275	  35.528	  42.535
  710	  0.2200	 35.5775	  35.577	  42.595
  711	  0.2200	 35.6275	  35.627	  42.655
  712	  0.2200	 35.6775	  35.677	  42.715
  713	  0.2200	 35.7275	  35.728	  42.775
  714	  0.2200	 35.7762	  35.776	  42.835
  715	  0.2200	 35.8275	  35.827	  42.895
  716	  0.2200	 35.8775	  35.877	  42.955
  717	  0.2200	 35.9275	  35.927	  43.015
  718	  0.2200	 35.9775	  35.978	  43.075
  719	  0.2200	 36.0275	  36.028	  43.135
  720	  0.2200	 36.0788	  36.079	  43.195
  721	  0.2200	 36.1287	  36.129	  43.255
  722	  0.2200	 36.1787	  36.179	  43.315
  723	  0.2200	 36.2287	  36.229	  43.375
  724	  0.2200	 36.2800	  36.280	  43.435
  725	  0.2200	 36.3288	  36.329	  43.495
  726	  0.2200	 36.3787	  36.379	  43.555
  727	  0.2200	 36.4300	  36.430	  43.615
  728	  0.2200	 36.4800	  36.480	  43.675
  729	  0.2200	 36.5300	  36.530	  43.735
  730	  0.2200	 36.5800	  36.580	  43.795
  731	  0.2200	 36.6312	  36.631	  43.855
  732	  0.2200	 36.6787	  36.679	  43.915
  733	  0.2200	 36.7287	  36.729	  43.975
  734	  0.2200	 36.7787	  36.779	  44.035
  735	  0.2200	 36.8288	  36.829	  44.095
  736	  0.2200	 36.8800	  36.880	  44.155
  737	  0.2200	 36.9300	  36.930	  44.215
  738	  0.2200	 36.9800	  36.980	  44.275
  739	  0.2200	 37.0300	  37.030	  44.335
  740	  0.2200	 37.0812	  37.081	  44.395
  741	  0.2200	 37.1312	  37.131	  44.455
  742	  0.2200	 37.1812	  37.181	  44.515
  743	  0.2200	 37.2313	  37.231	  44.575
  744	  0.2200	 37.2812	  37.281	  44.635
  745	  0.2200	 37.3312	  37.331	  44.695
  746	  0.2200	 37.3812	  37.381	  44.755
  747	  0.2200	 37.4325	  37.432	  44.815
  748	  0.2200	 37.4813	  37.481	  44.875
  749	  0.2200	 37.5312	  37.531	  44.935
  750	  0.2200	 37.5825	  37.583	  44.995
  751	  0.2200	 37.6312	  37.631	  45.055
  752	  0.2200	 37.6825	  37.682	  45.115
  753	  0.2200	 37.7325	  37.732	  45.175
  754	  0.2200	 37.7825	  37.782	  45.235
  755	  0.2200	 37.8325	  37.833	  45.295
  756	  0.2200	 37.8825	  37.882	  45.355
  757	  0.2200	 37.9325	  37.932	  45.415
  758	  0.2200	 37.9837	  37.984	  45.475
  759	  0.2200	 38.0337	  38.034	  45.535
  760	  0.2200	 38.0837	  38.084	  45.595
  761	  0.2200	 38.1338	  38.134	  45.655
  762	  0.2200	 38.1838	  38.184	  45.715
  763	  0.2200	 38.2350	  38.235	  45.775
  764	  0.2200	 38.2850	  38.285	  45.835
  765	  0.2200	 38.3363	  38.336	  45.895
  766	  0.2200	 38.3850	  38.385	  45.955
  767	  0.2200	 38.4362	  38.436	  46.015
  768	  0.2200	 38.4850	  38.485	  46.075
  769	  0.2200	 38.5350	  38.535	  46.135
  770	  0.2200	 38.5863	  38.586	  46.195
  771	  0.2200	 38.6362	  38.636	  46.255
  772	  0.2200	 38.6862	  38.686	  46.315
  773	  0.2200	 38.7362	  38.736	  46.375
  774	  0.2200	 38.7875	  38.787	  46.435
  775	  0.2200	 38.8363	  38.836	  46.495
  776	  0.2200	 38.8862	  38.886	  46.555
  777	  0.2200	 38.9375	  38.938	  46.615
  778	  0.2200	 38.9875	  38.987	  46.675
  779	  0.2200	 39.0375	  39.037	  46.735
  780	  0.2200	 39.0875	  39.087	  46.795
  781	  0.2200	 39.1375	  39.138	  46.855
  782	  0.2200	 39.1875	  39.188	  46.915
  783	  0.2200	 39.2375	  39.237	  46.975
  784	  0.2200	 39.2875	  39.287	  47.035
  785	  0.2200	 39.3375	  39.337	  47.095
  786	  0.2200	 39.3875	  39.388	  47.155
  787	  0.2200	 39.4375	  39.438	  47.215
  788	  0.2200	 39.4888	  39.489	  47.275
  789	  0.2200	 39.5375	  39.537	  47.335
  790	  0.2200	 39.5887	  39.589	  47.395
  791	  0.2200	 39.6375	  39.638	  47.455
  792	  0.2200	 39.6887	  39.689	  47.515
  793	  0.2200	 39.7375	  39.737	  47.575
  794	  0.2200	 39.7875	  39.787	  47.635
  795	  0.2200	 39.8387	  39.839	  47.695
  796	  0.2200	 39.8875	  39.888	  47.755
  797	  0.2200	 39.9387	  39.939	  47.815
  798	  0.2200	 39.9875	  39.987	  47.875
  799	  0.2200	 40.0387	  40.039	  47.935
  800	  0.2200	 40.0887	  40.089	  47.995
  801	  0.2200	 40.1387	  40.139	  48.055
  802	  0.2200	 40.1887	  40.189	  48.115
  803	  0.2200	 40.2388	  40.239	  48.175
  804	  0.2200	 40.2900	  40.290	  48.235
  805	  0.2200	 40.3400	  40.340	  48.295
  806	  0.2200	 40.3900	  40.390	  48.355
  807	  0.2200	 40.4400	  40.440	  48.415
  808	  0.2200	 40.4900	  40.490	  48.475
  809	  0.2200	 40.5400	  40.540	  48.535
  810	  0.2200	 40.5887	  40.589	  48.595
  811	  0.2200	 40.6400	  40.640	  48.655
  812	  0.2200	 40.6900	  40.690	  48.715
  813	  0.2200	 40.7400	  40.740	  48.775
  814	  0.2200	 40.7900	  40.790	  48.835
  815	  0.2200	 40.8412	  40.841	  48.895
  816	  0.2200	 40.8900	  40.890	  48.955
  817	  0.2200	 40.9412	  40.941	  49.015
  818	  0.2200	 40.9912	  40.991	  49.075
  819	  0.2200	 41.0412	  41.041	  49.135
  820	  0.2200	 41.0912	  41.091	  49.195
  821	  0.2200	 41.1413	  41.141	  49.255
  822	  0.2200	 41.1912	  41.191	  49.315
  823	  0.2200	 41.2412	  41.241	  49.375
  824	  0.2200	 41.2925	  41.292	  49.435
  825	  0.2200	 41.3425	  41.342	  49.495
  826	  0.2200	 41.3925	  41.392	  49.555
  827	  0.2200	 41.4425	  41.442	  49.615
  828	  0.2200	 41.4925	  41.493	  49.675
  829	  0.2200	 41.5438	  41.544	  49.735
  830	  0.2200	 41.5938	  41.594	  49.795
  831	  0.2200	 41.6437	  41.644	  49.855
  832	  0.2200	 41.6937	  41.694	  49.915
  833	  0.2200	 41.7437	  41.744	  49.975
  834	  0.2200	 41.7938	  41.794	  50.035
  835	  0.2200	 41.8438	  41.844	  50.095
  836	  0.2200	 41.8937	  41.894	  50.155
  837	  0.2200	 41.9437	  41.944	  50.215
  838	  0.2200	 41.9950	  41.995	  50.275
  839	  0.2200	 42.0450	  42.045	  50.335
  840	  0.2200	 42.0950	  42.095	  50.395
  841	  0.2200	 42.1450	  42.145	  50.455
  842	  0.2200	 42.1963	  42.196	  50.515
  843	  0.2200	 42.2463	  42.246	  50.575
  844	  0.2200	 42.2962	  42.296	  50.635
  845	  0.2200	 42.3462	  42.346	  50.695
  846	  0.2200	 42.3962	  42.396	  50.755
  847	  0.2200	 42.4475	  42.447	  50.815
  848	  0.2200	 42.4963	  42.496	  50.875
  849	  0.2200	 42.5475	  42.548	  50.935
  850	  0.2200	 42.5975	  42.597	  50.995
  851	  0.2200	 42.6475	  42.647	  51.055
  852	  0.2200	 42.6975	  42.697	  51.115
  853	  0.2200	 42.7475	  42.747	  51.175
  854	  0.2200	 42.7975	  42.798	  51.235
  855	  0.2200	 42.8475	  42.847	  51.295
  856	  0.2200	 42.8988	  42.899	  51.355
  857	  0.2200	 42.9487	  42.949	  51.415
  858	  0.2200	 42.9987	  42.999	  51.475
  859	  0.2200	 43.0487	  43.049	  51.535
  860	  0.2200	 43.0987	  43.099	  51.595
  861	  0.2200	 43.1488	  43.149	  51.655
  862	  0.2200	 43.1987	  43.199	  51.715
  863	  0.2200	 43.2500	  43.250	  51.775
  864	  0.2200	 43.3000	  43.300	  51.835
  865	  0.2200	 43.3512	  43.351	  51.895
  866	  0.2200	 43.4000	  43.400	  51.955
  867	  0.2200	 43.4512	  43.451	  52.015
  868	  0.2200	 43.5012	  43.501	  52.075
  869	  0.2200	 43.5513	  43.551	  52.135
  870	  0.2200	 43.6012	  43.601	  52.195
  871	  0.2200	 43.6512	  43.651	  52.255
  872	  0.2200	 43.7012	  43.701	  52.315
  873	  0.2200	 43.7512	  43.751	  52.375
  874	  0.2200	 43.8025	  43.802	  52.435
  875	  0.2200	 43.8525	  43.853	  52.495
  876	  0.2200	 43.9012	  43.901	  52.555
  877	  0.2200	 43.9525	  43.952	  52.615
  878	  0.2200	 44.0025	  44.002	  52.675
  879	  0.2200	 44.0525	  44.052	  52.735
  880	  0.2200	 44.1025	  44.103	  52.795
  881	  0.2200	 44.1537	  44.154	  52.855
  882	  0.2200	 44.2038	  44.204	  52.915
  883	  0.2200	 44.2537	  44.254	  52.975
  884	  0.2200	 44.3037	  44.304	  53.035
  885	  0.2200	 44.3537	  44.354	  53.095
  886	  0.2200	 44.4050	  44.405	  53.155
  887	  0.2200	 44.4550	  44.455	  53.215
  888	  0.2200	 44.5050	  44.505	  53.275
  889	  0.2200	 44.5550	  44.555	  53.335
  890	  0.2200	 44.6063	  44.606	  53.395
  891	  0.2200	 44.6562	  44.656	  53.455
  892	  0.2200	 44.7062	  44.706	  53.515
  893	  0.2200	 44.7562	  44.756	  53.575
  894	  0.2200	 44.8062	  44.806	  53.635
  895	  0.2200	 44.8563	  44.856	  53.695
  896	  0.2200	 44.9062	  44.906	  53.755
  897	  0.2200	 44.9575	  44.958	  53.815
  898	  0.2200	 45.0075	  45.007	  53.875
  899	  0.2200	 45.0575	  45.057	  53.935
  900	  0.2200	 45.1087	  45.109	  53.995
  901	  0.2200	 45.1575	  45.157	  54.055
  902	  0.2200	 45.2062	  45.206	  54.115
  903	  0.2200	 45.2562	  45.256	  54.175
  904	  0.2200	 45.3075	  45.307	  54.235
  905	  0.2200	 45.3575	  45.357	  54.295
  906	  0.2200	 45.4075	  45.407	  54.355
  907	  0.2200	 45.4575	  45.458	  54.415
  908	  0.2200	 45.5087	  45.509	  54.475
  909	  0.2200	 45.5588	  45.559	  54.535
  910	  0.2200	 45.6087	  45.609	  54.595
  911	  0.2200	 45.6587	  45.659	  54.655
  912	  0.2200	 45.7087	  45.709	  54.715
  913	  0.2200	 45.7600	  45.760	  54.775
  914	  0.2200	 45.8100	  45.810	  54.835
  915	  0.2200	 45.8612	  45.861	  54.895
  916	  0.2200	 45.9112	  45.911	  54.955
  917	  0.2200	 45.9613	  45.961	  55.015
  918	  0.2200	 46.0112	  46.011	  55.075
  919	  0.2200	 46.0612	  46.061	  55.135
  920	  0.2200	 46.1112	  46.111	  55.195
  921	  0.2200	 46.1612	  46.161	  55.255
  922	  0.2200	 46.2125	  46.212	  55.315
  923	  0.2200	 46.2625	  46.263	  55.375
  924	  0.2200	 46.3125	  46.312	  55.435
  925	  0.2200	 46.3625	  46.362	  55.495
  926	  0.2200	 46.4100	  46.410	  55.555
  927	  0.2200	 46.4613	  46.461	  55.615
  928	  0.2200	 46.5112	  46.511	  55.675
  929	  0.2200	 46.5612	  46.561	  55.735
  930	  0.2200	 46.6112	  46.611	  55.795
  931	  0.2200	 46.6625	  46.662	  55.855
  932	  0.2200	 46.7125	  46.712	  55.915
  933	  0.2200	 46.7625	  46.763	  55.975
  934	  0.2200	 46.8125	  46.812	  56.035
  935	  0.2200	 46.8625	  46.862	  56.095
  936	  0.2200	 46.9137	  46.914	  56.155
  937	  0.2200	 46.9625	  46.962	  56.215
  938	  0.2200	 47.0137	  47.014	  56.275
  939	  0.2200	 47.0637	  47.064	  56.335
  940	  0.2200	 47.1138	  47.114	  56.395
  941	  0.2200	 47.1637	  47.164	  56.455
  942	  0.2200	 47.2150	  47.215	  56.515
  943	  0.2200	 47.2650	  47.265	  56.575
  944	  0.2200	 47.3137	  47.314	  56.635
  945	  0.2200	 47.3650	  47.365	  56.695
  946	  0.2200	 47.4150	  47.415	  56.755
  947	  0.2200	 47.4662	  47.466	  56.815
  948	  0.2200	 47.5150	  47.515	  56.875
  949	  0.2200	 47.5662	  47.566	  56.935
  950	  0.2200	 47.6162	  47.616	  56.995
  951	  0.2200	 47.6650	  47.665	  57.055
  952	  0.2200	 47.7162	  47.716	  57.115
  953	  0.2200	 47.7650	  47.765	  57.175
  954	  0.2200	 47.8162	  47.816	  57.235
  955	  0.2200	 47.8662	  47.866	  57.295
  956	  0.2200	 47.9162	  47.916	  57.355
  957	  0.2200	 47.9662	  47.966	  57.415
  958	  0.2200	 48.0175	  48.017	  57.475
  959	  0.2200	 48.0662	  48.066	  57.535
  960	  0.2200	 48.1162	  48.116	  57.595
  961	  0.2200	 48.1675	  48.167	  57.655
  962	  0.2200	 48.2162	  48.216	  57.715
  963	  0.2200	 48.2663	  48.266	  57.775
  964	  0.2200	 48.3162	  48.316	  57.835
  965	  0.2200	 48.3662	  48.366	  57.895
  966	  0.2200	 48.4175	  48.417	  57.955
  967	  0.2200	 48.4675	  48.467	  58.015
  968	  0.2200	 48.5175	  48.517	  58.075
  969	  0.2200	 48.5675	  48.567	  58.135
  970	  0.2200	 48.6175	  48.618	  58.195
  971	  0.2200	 48.6675	  48.667	  58.255
  972	  0.2200	 48.7175	  48.717	  58.315
  973	  0.2200	 48.7675	  48.767	  58.375
  974	  0.2200	 48.8187	  48.819	  58.435
  975	  0.2200	 48.8675	  48.868	  58.495
  976	  0.2200	 48.9175	  48.917	  58.555
  977	  0.2200	 48.9675	  48.967	  58.615
  978	  0.2200	 49.0175	  49.017	  58.675
  979	  0.2200	 49.0687	  49.069	  58.735
  980	  0.2200	 49.1187	  49.119	  58.795
  981	  0.2200	 49.1688	  49.169	  58.855
  982	  0.2200	 49.2188	  49.219	  58.915
  983	  0.2200	 49.2687	  49.269	  58.975
  984	  0.2200	 49.3187	  49.319	  59.035
  985	  0.2200	 49.3687	  49.369	  59.095
  986	  0.2200	 49.4200	  49.420	  59.155
  987	  0.2200	 49.4700	  49.470	  59.215
  988	  0.2200	 49.5200	  49.520	  59.275
  989	  0.2200	 49.5700	  49.570	  59.335
  990	  0.2200	 49.6200	  49.620	  59.395
  991	  0.2200	 49.6700	  49.670	  59.455
  992	  0.2200	 49.7162	  49.716	  59.515
  993	  0.2200	 49.7663	  49.766	  59.575
  994	  0.2200	 49.8162	  49.816	  59.635
  995	  0.2200	 49.8662	  49.866	  59.695
  996	  0.2200	 49.9162	  49.916	  59.755
  997	  0.2200	 49.9675	  49.967	  59.815
  998	  0.2200	 50.0175	  50.017	  59.875
  999	  0.2200	 50.0675	  50.067	  59.935
 1000	  0.2200	 50.1175	  50.118	  59.995
 1001	  0.2200	 50.1675	  50.167	  60.055
 1002	  0.2200	 50.2175	  50.217	  60.115
 1003	  0.2200	 50.2675	  50.267	  60.175
 1004	  0.2200	 50.3187	  50.319	  60.235
 1005	  0.2200	 50.3675	  50.368	  60.295
 1006	  0.2200	 50.4188	  50.419	  60.355
 1007	  0.2200	 50.4688	  50.469	  60.415
 1008	  0.2200	 50.5187	  50.519	  60.475
 1009	  0.2200	 50.5687	  50.569	  60.535
 1010	  0.2200	 50.6187	  50.619	  60.595
 1011	  0.2200	 50.6700	  50.670	  60.655
 1012	  0.2200	 50.7188	  50.719	  60.715
 1013	  0.2200	 50.7700	  50.770	  60.775
 1014	  0.2200	 50.8200	  50.820	  60.835
 1015	  0.2200	 50.8700	  50.870	  60.895
 1016	  0.2200	 50.9200	  50.920	  60.955
 1017	  0.2200	 50.9700	  50.970	  61.015
 1018	  0.2200	 51.0200	  51.020	  61.075
 1019	  0.2200	 51.0700	  51.070	  61.135
 1020	  0.2200	 51.1200	  51.120	  61.195
 1021	  0.2200	 51.1700	  51.170	  61.255
 1022	  0.2200	 51.2212	  51.221	  61.315
 1023	  0.2200	 51.2712	  51.271	  61.375
 1024	  0.2200	 51.3212	  51.321	  61.435
 1025	  0.2200	 51.3713	  51.371	  61.495
 1026	  0.2200	 51.4212	  51.421	  61.555
 1027	  0.2200	 51.4725	  51.472	  61.615
 1028	  0.2200	 51.5225	  51.522	  61.675
 1029	  0.2200	 51.5725	  51.572	  61.735
 1030	  0.2200	 51.6225	  51.622	  61.795
 1031	  0.2200	 51.6725	  51.673	  61.855
 1032	  0.2200	 51.7225	  51.722	  61.915
 1033	  0.2200	 51.7725	  51.772	  61.975
 1034	  0.2200	 51.8237	  51.824	  62.035
 1035	  0.2200	 51.8725	  51.872	  62.095
 1036	  0.2200	 51.9237	  51.924	  62.155
 1037	  0.2200	 51.9725	  51.972	  62.215
 1038	  0.2200	 52.0238	  52.024	  62.275
 1039	  0.2200	 52.0737	  52.074	  62.335
 1040	  0.2200	 52.1237	  52.124	  62.395
 1041	  0.2200	 52.1737	  52.174	  62.455
 1042	  0.2200	 52.2237	  52.224	  62.515
 1043	  0.2200	 52.2738	  52.274	  62.575
 1044	  0.2200	 52.3237	  52.324	  62.635
 1045	  0.2200	 52.3737	  52.374	  62.695
 1046	  0.2200	 52.4237	  52.424	  62.755
 1047	  0.2200	 52.4737	  52.474	  62.815
 1048	  0.2200	 52.5238	  52.524	  62.875
 1049	  0.2200	 52.5750	  52.575	  62.935
 1050	  0.2200	 52.6250	  52.625	  62.995
 1051	  0.2200	 52.6750	  52.675	  63.055
 1052	  0.2200	 52.7250	  52.725	  63.115
 1053	  0.2200	 52.7750	  52.775	  63.175
 1054	  0.2200	 52.8250	  52.825	  63.235
 1055	  0.2200	 52.8750	  52.875	  63.295
 1056	  0.2200	 52.9263	  52.926	  63.355
 1057	  0.2200	 52.9762	  52.976	  63.415
 1058	  0.2200	 53.0262	  53.026	  63.475
 1059	  0.2200	 53.0762	  53.076	  63.535
 1060	  0.2200	 53.1262	  53.126	  63.595
 1061	  0.2200	 53.1763	  53.176	  63.655
 1062	  0.2200	 53.2262	  53.226	  63.715
 1063	  0.2200	 53.2775	  53.278	  63.775
 1064	  0.2200	 53.3262	  53.326	  63.835
 1065	  0.2200	 53.3775	  53.377	  63.895
 1066	  0.2200	 53.4275	  53.427	  63.955
 1067	  0.2200	 53.4775	  53.477	  64.015
 1068	  0.2200	 53.5275	  53.528	  64.075
 1069	  0.2200	 53.5775	  53.577	  64.135
 1070	  0.2200	 53.6287	  53.629	  64.195
 1071	  0.2200	 53.6787	  53.679	  64.255
 1072	  0.2200	 53.7287	  53.729	  64.315
 1073	  0.2200	 53.7787	  53.779	  64.375
 1074	  0.2200	 53.8300	  53.830	  64.435
 1075	  0.2200	 53.8787	  53.879	  64.495
 1076	  0.2200	 53.9287	  53.929	  64.555
 1077	  0.2200	 53.9800	  53.980	  64.615
 1078	  0.2200	 54.0300	  54.030	  64.675
 1079	  0.2200	 54.0800	  54.080	  64.735
 1080	  0.2200	 54.1300	  54.130	  64.795
 1081	  0.2200	 54.1812	  54.181	  64.855
 1082	  0.2200	 54.2312	  54.231	  64.915
 1083	  0.2200	 54.2812	  54.281	  64.975
 1084	  0.2200	 54.3312	  54.331	  65.035
 1085	  0.2200	 54.3812	  54.381	  65.095
 1086	  0.2200	 54.4325	  54.432	  65.155
 1087	  0.2200	 54.4812	  54.481	  65.215
 1088	  0.2200	 54.5325	  54.532	  65.275
 1089	  0.2200	 54.5825	  54.583	  65.335
 1090	  0.2200	 54.6337	  54.634	  65.395
 1091	  0.2200	 54.6838	  54.684	  65.455
 1092	  0.2200	 54.7337	  54.734	  65.515
 1093	  0.2200	 54.7837	  54.784	  65.575
 1094	  0.2200	 54.8337	  54.834	  65.635
 1095	  0.2200	 54.8837	  54.884	  65.695
 1096	  0.2200	 54.9338	  54.934	  65.755
 1097	  0.2200	 54.9850	  54.985	  65.815
 1098	  0.2200	 55.0350	  55.035	  65.875
 1099	  0.2200	 55.0850	  55.085	  65.935
 1100	  0.2200	 55.1350	  55.135	  65.995
 1101	  0.2200	 55.1850	  55.185	  66.055
 1102	  0.2200	 55.2362	  55.236	  66.115
 1103	  0.2200	 55.2862	  55.286	  66.175
 1104	  0.2200	 55.3363	  55.336	  66.235
 1105	  0.2200	 55.3862	  55.386	  66.295
 1106	  0.2200	 55.4375	  55.438	  66.355
 1107	  0.2200	 55.4862	  55.486	  66.415
 1108	  0.2200	 55.5362	  55.536	  66.475
 1109	  0.2200	 55.5863	  55.586	  66.535
 1110	  0.2200	 55.6362	  55.636	  66.595
 1111	  0.2200	 55.6862	  55.686	  66.655
 1112	  0.2200	 55.7362	  55.736	  66.715
 1113	  0.2200	 55.7875	  55.787	  66.775
 1114	  0.2200	 55.8375	  55.837	  66.835
 1115	  0.2200	 55.8875	  55.887	  66.895
 1116	  0.2200	 55.9375	  55.938	  66.955
 1117	  0.2200	 55.9875	  55.987	  67.015
 1118	  0.2200	 56.0375	  56.037	  67.075
 1119	  0.2200	 56.0875	  56.087	  67.135
 1120	  0.2200	 56.1387	  56.139	  67.195
 1121	  0.2200	 56.1875	  56.188	  67.255
 1122	  0.2200	 56.2388	  56.239	  67.315
 1123	  0.2200	 56.2862	  56.286	  67.375
 1124	  0.2200	 56.3375	  56.337	  67.435
 1125	  0.2200	 56.3875	  56.387	  67.495
 1126	  0.2200	 56.4375	  56.438	  67.555
 1127	  0.2200	 56.4875	  56.487	  67.615
 1128	  0.2200	 56.5375	  56.537	  67.675
 1129	  0.2200	 56.5875	  56.587	  67.735
 1130	  0.2200	 56.6375	  56.637	  67.795
 1131	  0.2200	 56.6887	  56.689	  67.855
 1132	  0.2200	 56.7388	  56.739	  67.915
 1133	  0.2200	 56.7887	  56.789	  67.975
 1134	  0.2200	 56.8387	  56.839	  68.035
 1135	  0.2200	 56.8887	  56.889	  68.095
 1136	  0.2200	 56.9400	  56.940	  68.155
 1137	  0.2200	 56.9888	  56.989	  68.215
 1138	  0.2200	 57.0400	  57.040	  68.275
 1139	  0.2200	 57.0900	  57.090	  68.335
 1140	  0.2200	 57.1413	  57.141	  68.395
 1141	  0.2200	 57.1900	  57.190	  68.455
 1142	  0.2200	 57.2388	  57.239	  68.515
 1143	  0.2200	 57.2887	  57.289	  68.575
 1144	  0.2200	 57.3387	  57.339	  68.635
 1145	  0.2200	 57.3900	  57.390	  68.695
 1146	  0.2200	 57.4400	  57.440	  68.755
 1147	  0.2200	 57.4900	  57.490	  68.815
 1148	  0.2200	 57.5400	  57.540	  68.875
 1149	  0.2200	 57.5900	  57.590	  68.935
 1150	  0.2200	 57.6400	  57.640	  68.995
 1151	  0.2200	 57.6900	  57.690	  69.055
 1152	  0.2200	 57.7412	  57.741	  69.115
 1153	  0.2200	 57.7912	  57.791	  69.175
 1154	  0.2200	 57.8425	  57.842	  69.235
 1155	  0.2200	 57.8925	  57.892	  69.295
 1156	  0.2200	 57.9412	  57.941	  69.355
 1157	  0.2200	 57.9912	  57.991	  69.415
 1158	  0.2200	 58.0425	  58.042	  69.475
 1159	  0.2200	 58.0925	  58.092	  69.535
 1160	  0.2200	 58.1412	  58.141	  69.595
 1161	  0.2200	 58.1925	  58.192	  69.655
 1162	  0.2200	 58.2425	  58.243	  69.715
 1163	  0.2200	 58.2925	  58.292	  69.775
 1164	  0.2200	 58.3425	  58.342	  69.835
 1165	  0.2200	 58.3937	  58.394	  69.895
 1166	  0.2200	 58.4437	  58.444	  69.955
 1167	  0.2200	 58.4937	  58.494	  70.015
 1168	  0.2200	 58.5437	  58.544	  70.075
 1169	  0.2200	 58.5938	  58.594	  70.135
 1170	  0.2200	 58.6450	  58.645	  70.195
 1171	  0.2200	 58.6937	  58.694	  70.255
 1172	  0.2200	 58.7450	  58.745	  70.315
 1173	  0.2200	 58.7950	  58.795	  70.375
 1174	  0.2200	 58.8450	  58.845	  70.435
 1175	  0.2200	 58.8950	  58.895	  70.495
 1176	  0.2200	 58.9450	  58.945	  70.555
 1177	  0.2200	 58.9963	  58.996	  70.615
 1178	  0.2200	 59.0450	  59.045	  70.675
 1179	  0.2200	 59.0962	  59.096	  70.735
 1180	  0.2200	 59.1450	  59.145	  70.795
 1181	  0.2200	 59.1950	  59.195	  70.855
 1182	  0.2200	 59.2450	  59.245	  70.915
 1183	  0.2200	 59.2962	  59.296	  70.975
 1184	  0.2200	 59.3450	  59.345	  71.035
 1185	  0.2200	 59.3950	  59.395	  71.095
 1186	  0.2200	 59.4462	  59.446	  71.155
 1187	  0.2200	 59.4963	  59.496	  71.215
 1188	  0.2200	 59.5462	  59.546	  71.275
 1189	  0.2200	 59.5962	  59.596	  71.335
 1190	  0.2200	 59.6475	  59.647	  71.395
 1191	  0.2200	 59.6962	  59.696	  71.455
 1192	  0.2200	 59.7463	  59.746	  71.515
 1193	  0.2200	 59.7962	  59.796	  71.575
 1194	  0.2200	 59.8462	  59.846	  71.635
 1195	  0.2200	 59.8962	  59.896	  71.695
 1196	  0.2200	 59.9462	  59.946	  71.755
 1197	  0.2200	 59.9975	  59.997	  71.815
 1198	  0.2200	 60.0475	  60.047	  71.875
 1199	  0.2200	 60.0975	  60.097	  71.935
 1200	  0.2200	 60.1475	  60.147	  71.995
 1201	  0.2200	 60.1975	  60.197	  72.055
 1202	  0.2200	 60.2475	  60.247	  72.115
 1203	  0.2200	 60.2975	  60.297	  72.175
 1204	  0.2200	 60.3475	  60.347	  72.235
 1205	  0.2200	 60.3975	  60.397	  72.295
 1206	  0.2200	 60.4475	  60.447	  72.355
 1207	  0.2200	 60.4975	  60.497	  72.415
 1208	  0.2200	 60.5487	  60.549	  72.475
 1209	  0.2200	 60.5975	  60.597	  72.535
 1210	  0.2200	 60.6475	  60.647	  72.595
 1211	  0.2200	 60.6987	  60.699	  72.655
 1212	  0.2200	 60.7475	  60.747	  72.715
 1213	  0.2200	 60.7987	  60.799	  72.775
 1214	  0.2200	 60.8487	  60.849	  72.835
 1215	  0.2200	 60.8988	  60.899	  72.895
 1216	  0.2200	 60.9487	  60.949	  72.955
 1217	  0.2200	 60.9987	  60.999	  73.015
 1218	  0.2200	 61.0487	  61.049	  73.075
 1219	  0.2200	 61.0987	  61.099	  73.135
 1220	  0.2200	 61.1488	  61.149	  73.195
 1221	  0.2200	 61.1987	  61.199	  73.255
 1222	  0.2200	 61.2500	  61.250	  73.315
 1223	  0.2200	 61.2987	  61.299	  73.375
 1224	  0.2200	 61.3500	  61.350	  73.435
 1225	  0.2200	 61.4000	  61.400	  73.495
 1226	  0.2200	 61.4500	  61.450	  73.555
 1227	  0.2200	 61.5000	  61.500	  73.615
 1228	  0.2200	 61.5500	  61.550	  73.675
 1229	  0.2200	 61.6000	  61.600	  73.735
 1230	  0.2200	 61.6500	  61.650	  73.795
 1231	  0.2200	 61.7000	  61.700	  73.855
 1232	  0.2200	 61.7512	  61.751	  73.915
 1233	  0.2200	 61.8013	  61.801	  73.975
 1234	  0.2200	 61.8500	  61.850	  74.035
 1235	  0.2200	 61.9012	  61.901	  74.095
 1236	  0.2200	 61.9512	  61.951	  74.155
 1237	  0.2200	 62.0012	  62.001	  74.215
 1238	  0.2200	 62.0525	  62.052	  74.275
 1239	  0.2200	 62.1025	  62.102	  74.335
 1240	  0.2200	 62.1537	  62.154	  74.395
 1241	  0.2200	 62.2025	  62.202	  74.455
 1242	  0.2200	 62.2537	  62.254	  74.515
 1243	  0.2200	 62.3037	  62.304	  74.575
 1244	  0.2200	 62.3525	  62.352	  74.635
 1245	  0.2200	 62.4025	  62.403	  74.695
 1246	  0.2200	 62.4537	  62.454	  74.755
 1247	  0.2200	 62.5037	  62.504	  74.815
 1248	  0.2200	 62.5537	  62.554	  74.875
 1249	  0.2200	 62.6037	  62.604	  74.935
 1250	  0.2200	 62.6537	  62.654	  74.995
 1251	  0.2200	 62.7037	  62.704	  75.055
 1252	  0.2200	 62.7550	  62.755	  75.115
 1253	  0.2200	 62.8050	  62.805	  75.175
 1254	  0.2200	 62.8550	  62.855	  75.235
 1255	  0.2200	 62.9050	  62.905	  75.295
 1256	  0.2200	 62.9562	  62.956	  75.355
 1257	  0.2200	 63.0062	  63.006	  75.415
 1258	  0.2200	 63.0562	  63.056	  75.475
 1259	  0.2200	 63.1062	  63.106	  75.535
 1260	  0.2200	 63.1562	  63.156	  75.595
 1261	  0.2200	 63.2075	  63.208	  75.655
 1262	  0.2200	 63.2562	  63.256	  75.715
 1263	  0.2200	 63.3075	  63.307	  75.775
 1264	  0.2200	 63.3575	  63.357	  75.835
 1265	  0.2200	 63.4075	  63.407	  75.895
 1266	  0.2200	 63.4575	  63.458	  75.955
 1267	  0.2200	 63.5087	  63.509	  76.015
 1268	  0.2200	 63.5575	  63.557	  76.075
 1269	  0.2200	 63.6075	  63.607	  76.135
 1270	  0.2200	 63.6587	  63.659	  76.195
 1271	  0.2200	 63.7087	  63.709	  76.255
 1272	  0.2200	 63.7587	  63.759	  76.315
 1273	  0.2200	 63.8088	  63.809	  76.375
 1274	  0.2200	 63.8600	  63.860	  76.435
 1275	  0.2200	 63.9100	  63.910	  76.495
 1276	  0.2200	 63.9587	  63.959	  76.555
 1277	  0.2200	 64.0100	  64.010	  76.615
 1278	  0.2200	 64.0600	  64.060	  76.675
 1279	  0.2200	 64.1100	  64.110	  76.735
 1280	  0.2200	 64.1600	  64.160	  76.795
 1281	  0.2200	 64.2113	  64.211	  76.855
 1282	  0.2200	 64.2612	  64.261	  76.915
 1283	  0.2200	 64.3112	  64.311	  76.975
 1284	  0.2200	 64.3613	  64.361	  77.035
 1285	  0.2200	 64.4112	  64.411	  77.095
 1286	  0.2200	 64.4613	  64.461	  77.155
 1287	  0.2200	 64.5112	  64.511	  77.215
 1288	  0.2200	 64.5625	  64.562	  77.275
 1289	  0.2200	 64.6125	  64.612	  77.335
 1290	  0.2200	 64.6625	  64.662	  77.395
 1291	  0.2200	 64.7125	  64.713	  77.455
 1292	  0.2200	 64.7625	  64.762	  77.515
 1293	  0.2200	 64.8125	  64.812	  77.575
 1294	  0.2200	 64.8625	  64.862	  77.635
 1295	  0.2200	 64.9137	  64.914	  77.695
 1296	  0.2200	 64.9637	  64.964	  77.755
 1297	  0.2200	 65.0137	  65.014	  77.815
 1298	  0.2200	 65.0638	  65.064	  77.875
 1299	  0.2200	 65.1137	  65.114	  77.935
 1300	  0.2200	 65.1637	  65.164	  77.995
 1301	  0.2200	 65.2137	  65.214	  78.055
 1302	  0.2200	 65.2650	  65.265	  78.115
 1303	  0.2200	 65.3150	  65.315	  78.175
 1304	  0.2200	 65.3650	  65.365	  78.235
 1305	  0.2200	 65.4150	  65.415	  78.295
 1306	  0.2200	 65.4637	  65.464	  78.355
 1307	  0.2200	 65.5137	  65.514	  78.415
 1308	  0.2200	 65.5638	  65.564	  78.475
 1309	  0.2200	 65.6137	  65.614	  78.535
 1310	  0.2200	 65.6637	  65.664	  78.595
 1311	  0.2200	 65.7137	  65.714	  78.655
 1312	  0.2200	 65.7637	  65.764	  78.715
 1313	  0.2200	 65.8150	  65.815	  78.775
 1314	  0.2200	 65.8637	  65.864	  78.835
 1315	  0.2200	 65.9150	  65.915	  78.895
 1316	  0.2200	 65.9650	  65.965	  78.955
 1317	  0.2200	 66.0163	  66.016	  79.015
 1318	  0.2200	 66.0650	  66.065	  79.075
 1319	  0.2200	 66.1150	  66.115	  79.135
 1320	  0.2200	 66.1663	  66.166	  79.195
 1321	  0.2200	 66.2162	  66.216	  79.255
 1322	  0.2200	 66.2675	  66.268	  79.315
 1323	  0.2200	 66.3175	  66.317	  79.375
 1324	  0.2200	 66.3675	  66.368	  79.435
 1325	  0.2200	 66.4175	  66.417	  79.495
 1326	  0.2200	 66.4675	  66.467	  79.555
 1327	  0.2200	 66.5187	  66.519	  79.615
 1328	  0.2200	 66.5675	  66.567	  79.675
 1329	  0.2200	 66.6188	  66.619	  79.735
 1330	  0.2200	 66.6675	  66.667	  79.795
 1331	  0.2200	 66.7188	  66.719	  79.855
 1332	  0.2200	 66.7687	  66.769	  79.915
 1333	  0.2200	 66.8187	  66.819	  79.975
 1334	  0.2200	 66.8688	  66.869	  80.035
 1335	  0.2200	 66.9187	  66.919	  80.095
 1336	  0.2200	 66.9700	  66.970	  80.155
 1337	  0.2200	 67.0200	  67.020	  80.215
 1338	  0.2200	 67.0687	  67.069	  80.275
 1339	  0.2200	 67.1188	  67.119	  80.335
 1340	  0.2200	 67.1700	  67.170	  80.395
 1341	  0.2200	 67.2200	  67.220	  80.455
 1342	  0.2200	 67.2700	  67.270	  80.515
 1343	  0.2200	 67.3200	  67.320	  80.575
 1344	  0.2200	 67.3700	  67.370	  80.635
 1345	  0.2200	 67.4200	  67.420	  80.695
 1346	  0.2200	 67.4700	  67.470	  80.755
 1347	  0.2200	 67.5212	  67.521	  80.815
 1348	  0.2200	 67.5700	  67.570	  80.875
 1349	  0.2200	 67.6200	  67.620	  80.935
 1350	  0.2400	 67.6700	  67.670	  80.995
 1351	  0.2400	 67.7200	  67.720	  81.055
 1352	  0.2400	 67.7712	  67.771	  81.115
 1353	  0.2200	 67.8200	  67.820	  81.175
 1354	  0.2200	 67.8712	  67.871	  81.235
 1355	  0.2200	 67.9212	  67.921	  81.295
 1356	  0.2200	 67.9712	  67.971	  81.355
 1357	  0.2200	 68.0212	  68.021	  81.415
 1358	  0.2200	 68.0725	  68.073	  81.475
 1359	  0.2200	 68.1225	  68.122	  81.535
 1360	  0.2400	 68.1712	  68.171	  81.595
 1361	  0.2400	 68.2212	  68.221	  81.655
 1362	  0.2200	 68.2712	  68.271	  81.715
 1363	  0.2200	 68.3225	  68.323	  81.775
 1364	  0.2200	 68.3725	  68.372	  81.835
 1365	  0.2200	 68.4225	  68.423	  81.895
 1366	  0.2200	 68.4725	  68.472	  81.955
 1367	  0.2200	 68.5238	  68.524	  82.015
 1368	  0.2400	 68.5725	  68.573	  82.075
 1369	  0.2200	 68.6225	  68.622	  82.135
 1370	  0.2200	 68.6738	  68.674	  82.195
 1371	  0.2400	 68.7225	  68.722	  82.255
 1372	  0.2400	 68.7738	  68.774	  82.315
 1373	  0.2200	 68.8237	  68.824	  82.375
 1374	  0.2400	 68.8737	  68.874	  82.435
 1375	  0.2400	 68.9238	  68.924	  82.495
 1376	  0.2200	 68.9725	  68.972	  82.555
 1377	  0.2200	 69.0238	  69.024	  82.615
 1378	  0.2400	 69.0737	  69.074	  82.675
 1379	  0.2400	 69.1237	  69.124	  82.735
 1380	  0.2200	 69.1738	  69.174	  82.795
 1381	  0.2400	 69.2237	  69.224	  82.855
 1382	  0.2400	 69.2738	  69.274	  82.915
 1383	  0.2400	 69.3237	  69.324	  82.975
 1384	  0.2400	 69.3737	  69.374	  83.035
 1385	  0.2400	 69.4238	  69.424	  83.095
 1386	  0.2400	 69.4750	  69.475	  83.155
 1387	  0.2400	 69.5238	  69.524	  83.215
 1388	  0.2200	 69.5750	  69.575	  83.275
 1389	  0.2400	 69.6250	  69.625	  83.335
 1390	  0.2400	 69.6750	  69.675	  83.395
 1391	  0.2200	 69.7250	  69.725	  83.455
 1392	  0.2400	 69.7750	  69.775	  83.515
 1393	  0.2400	 69.8250	  69.825	  83.575
 1394	  0.2400	 69.8750	  69.875	  83.635
 1395	  0.2400	 69.9262	  69.926	  83.695
 1396	  0.2400	 69.9750	  69.975	  83.755
 1397	  0.2400	 70.0262	  70.026	  83.815
 1398	  0.2400	 70.0762	  70.076	  83.875
 1399	  0.2400	 70.1263	  70.126	  83.935
 1400	  0.2200	 70.1750	  70.175	  83.995
 1401	  0.2400	 70.2250	  70.225	  84.055
 1402	  0.2400	 70.2762	  70.276	  84.115
 1403	  0.2400	 70.3262	  70.326	  84.175
 1404	  0.2400	 70.3763	  70.376	  84.235
 1405	  0.2400	 70.4262	  70.426	  84.295
 1406	  0.2400	 70.4775	  70.478	  84.355
 1407	  0.2400	 70.5275	  70.527	  84.415
 1408	  0.2400	 70.5775	  70.577	  84.475
 1409	  0.2400	 70.6275	  70.627	  84.535
 1410	  0.2400	 70.6775	  70.677	  84.595
 1411	  0.2400	 70.7275	  70.728	  84.655
 1412	  0.2400	 70.7775	  70.777	  84.715
 1413	  0.2400	 70.8288	  70.829	  84.775
 1414	  0.2400	 70.8775	  70.877	  84.835
 1415	  0.2400	 70.9287	  70.929	  84.895
 1416	  0.2400	 70.9788	  70.979	  84.955
 1417	  0.2400	 71.0287	  71.029	  85.015
 1418	  0.2400	 71.0788	  71.079	  85.075
 1419	  0.2400	 71.1287	  71.129	  85.135
 1420	  0.2400	 71.1787	  71.179	  85.195
 1421	  0.2400	 71.2288	  71.229	  85.255
 1422	  0.2400	 71.2800	  71.280	  85.315
 1423	  0.2400	 71.3300	  71.330	  85.375
 1424	  0.2400	 71.3800	  71.380	  85.435
 1425	  0.2400	 71.4300	  71.430	  85.495
 1426	  0.2400	 71.4800	  71.480	  85.555
 1427	  0.2400	 71.5300	  71.530	  85.615
 1428	  0.2400	 71.5800	  71.580	  85.675
 1429	  0.2400	 71.6312	  71.631	  85.735
 1430	  0.2400	 71.6800	  71.680	  85.795
 1431	  0.2400	 71.7312	  71.731	  85.855
 1432	  0.2400	 71.7812	  71.781	  85.915
 1433	  0.2400	 71.8312	  71.831	  85.975
 1434	  0.2400	 71.8812	  71.881	  86.035
 1435	  0.2400	 71.9313	  71.931	  86.095
 1436	  0.2400	 71.9812	  71.981	  86.155
 1437	  0.2400	 72.0312	  72.031	  86.215
 1438	  0.2400	 72.0812	  72.081	  86.275
 1439	  0.2400	 72.1312	  72.131	  86.335
 1440	  0.2400	 72.1825	  72.182	  86.395
 1441	  0.2400	 72.2312	  72.231	  86.455
 1442	  0.2400	 72.2825	  72.283	  86.515
 1443	  0.2400	 72.3325	  72.332	  86.575
 1444	  0.2400	 72.3825	  72.382	  86.635
 1445	  0.2400	 72.4325	  72.432	  86.695
 1446	  0.2400	 72.4825	  72.482	  86.755
 1447	  0.2400	 72.5325	  72.533	  86.815
 1448	  0.2400	 72.5825	  72.582	  86.875
 1449	  0.2400	 72.6338	  72.634	  86.935
 1450	  0.2400	 72.6837	  72.684	  86.995
 1451	  0.2400	 72.7337	  72.734	  87.055
 1452	  0.2400	 72.7837	  72.784	  87.115
 1453	  0.2400	 72.8325	  72.832	  87.175
 1454	  0.2400	 72.8838	  72.884	  87.235
 1455	  0.2400	 72.9325	  72.932	  87.295
 1456	  0.2400	 72.9837	  72.984	  87.355
 1457	  0.2400	 73.0337	  73.034	  87.415
 1458	  0.2400	 73.0837	  73.084	  87.475
 1459	  0.2400	 73.1338	  73.134	  87.535
 1460	  0.2400	 73.1837	  73.184	  87.595
 1461	  0.2400	 73.2337	  73.234	  87.655
 1462	  0.2400	 73.2837	  73.284	  87.715
 1463	  0.2400	 73.3337	  73.334	  87.775
 1464	  0.2400	 73.3838	  73.384	  87.835
 1465	  0.2400	 73.4350	  73.435	  87.895
 1466	  0.2400	 73.4850	  73.485	  87.955
 1467	  0.2400	 73.5362	  73.536	  88.015
 1468	  0.2400	 73.5850	  73.585	  88.075
 1469	  0.2400	 73.6350	  73.635	  88.135
 1470	  0.2400	 73.6862	  73.686	  88.195
 1471	  0.2400	 73.7363	  73.736	  88.255
 1472	  0.2400	 73.7862	  73.786	  88.315
 1473	  0.2400	 73.8363	  73.836	  88.375
 1474	  0.2400	 73.8875	  73.887	  88.435
 1475	  0.2400	 73.9362	  73.936	  88.495
 1476	  0.2400	 73.9863	  73.986	  88.555
 1477	  0.2400	 74.0375	  74.037	  88.615
 1478	  0.2400	 74.0875	  74.088	  88.675
 1479	  0.2400	 74.1375	  74.137	  88.735
 1480	  0.2400	 74.1875	  74.188	  88.795
 1481	  0.2400	 74.2375	  74.237	  88.855
 1482	  0.2400	 74.2875	  74.287	  88.915
 1483	  0.2400	 74.3387	  74.339	  88.975
 1484	  0.2400	 74.3887	  74.389	  89.035
 1485	  0.2400	 74.4388	  74.439	  89.095
 1486	  0.2400	 74.4900	  74.490	  89.155
 1487	  0.2400	 74.5400	  74.540	  89.215
 1488	  0.2400	 74.5887	  74.589	  89.275
 1489	  0.2400	 74.6387	  74.639	  89.335
 1490	  0.2400	 74.6900	  74.690	  89.395
 1491	  0.2400	 74.7400	  74.740	  89.455
 1492	  0.2400	 74.7913	  74.791	  89.515
 1493	  0.2400	 74.8412	  74.841	  89.575
 1494	  0.2400	 74.8913	  74.891	  89.635
 1495	  0.2400	 74.9412	  74.941	  89.695
 1496	  0.2400	 74.9912	  74.991	  89.755
 1497	  0.2400	 75.0425	  75.042	  89.815
 1498	  0.2400	 75.0925	  75.092	  89.875
 1499	  0.2400	 75.1425	  75.143	  89.935
 1500	  0.2400	 75.1925	  75.192	  89.995
 1501	  0.2400	 75.2425	  75.243	  90.055
 1502	  0.2400	 75.2925	  75.292	  90.115
 1503	  0.2400	 75.3425	  75.342	  90.175
 1504	  0.2400	 75.3925	  75.393	  90.235
 1505	  0.2400	 75.4425	  75.442	  90.295
 1506	  0.2400	 75.4938	  75.494	  90.355
 1507	  0.2400	 75.5437	  75.544	  90.415
 1508	  0.2400	 75.5950	  75.595	  90.475
 1509	  0.2400	 75.6450	  75.645	  90.535
 1510	  0.2400	 75.6937	  75.694	  90.595
 1511	  0.2400	 75.7450	  75.745	  90.655
 1512	  0.2400	 75.7950	  75.795	  90.715
 1513	  0.2400	 75.8450	  75.845	  90.775
 1514	  0.2400	 75.8937	  75.894	  90.835
 1515	  0.2400	 75.9437	  75.944	  90.895
 1516	  0.2400	 75.9938	  75.994	  90.955
 1517	  0.2400	 76.0450	  76.045	  91.015
 1518	  0.2400	 76.0938	  76.094	  91.075
 1519	  0.2400	 76.1437	  76.144	  91.135
 1520	  0.2400	 76.1950	  76.195	  91.195
 1521	  0.2400	 76.2450	  76.245	  91.255
 1522	  0.2400	 76.2950	  76.295	  91.315
 1523	  0.2400	 76.3450	  76.345	  91.375
 1524	  0.2400	 76.3962	  76.396	  91.435
 1525	  0.2400	 76.4463	  76.446	  91.495
 1526	  0.2400	 76.4950	  76.495	  91.555
 1527	  0.2400	 76.5462	  76.546	  91.615
 1528	  0.2400	 76.5962	  76.596	  91.675
 1529	  0.2400	 76.6475	  76.647	  91.735
 1530	  0.2400	 76.6950	  76.695	  91.795
 1531	  0.2400	 76.7462	  76.746	  91.855
 1532	  0.2400	 76.7962	  76.796	  91.915
 1533	  0.2400	 76.8462	  76.846	  91.975
 1534	  0.2400	 76.8962	  76.896	  92.035
 1535	  0.2400	 76.9463	  76.946	  92.095
 1536	  0.2400	 76.9962	  76.996	  92.155
 1537	  0.2400	 77.0462	  77.046	  92.215
 1538	  0.2400	 77.0975	  77.097	  92.275
 1539	  0.2400	 77.1475	  77.147	  92.335
 1540	  0.2400	 77.1975	  77.197	  92.395
 1541	  0.2400	 77.2475	  77.247	  92.455
 1542	  0.2400	 77.2975	  77.298	  92.515
 1543	  0.2400	 77.3475	  77.347	  92.575
 1544	  0.2400	 77.3975	  77.397	  92.635
 1545	  0.2400	 77.4475	  77.447	  92.695
 1546	  0.2400	 77.4962	  77.496	  92.755
 1547	  0.2400	 77.5475	  77.548	  92.815
 1548	  0.2400	 77.5975	  77.597	  92.875
 1549	  0.2400	 77.6488	  77.649	  92.935
 1550	  0.2400	 77.6975	  77.697	  92.995
 1551	  0.2400	 77.7475	  77.747	  93.055
 1552	  0.2400	 77.7988	  77.799	  93.115
 1553	  0.2400	 77.8487	  77.849	  93.175
 1554	  0.2400	 77.8988	  77.899	  93.235
 1555	  0.2400	 77.9487	  77.949	  93.295
 1556	  0.2400	 78.0000	  78.000	  93.355
 1557	  0.2400	 78.0488	  78.049	  93.415
 1558	  0.2400	 78.1000	  78.100	  93.475
 1559	  0.2400	 78.1488	  78.149	  93.535
 1560	  0.2400	 78.1987	  78.199	  93.595
 1561	  0.2400	 78.2487	  78.249	  93.655
 1562	  0.2400	 78.2988	  78.299	  93.715
 1563	  0.2400	 78.3500	  78.350	  93.775
 1564	  0.2400	 78.4000	  78.400	  93.835
 1565	  0.2400	 78.4500	  78.450	  93.895
 1566	  0.2400	 78.5000	  78.500	  93.955
 1567	  0.2400	 78.5500	  78.550	  94.015
 1568	  0.2400	 78.6000	  78.600	  94.075
 1569	  0.2400	 78.6500	  78.650	  94.135
 1570	  0.2400	 78.7012	  78.701	  94.195
 1571	  0.2400	 78.7513	  78.751	  94.255
 1572	  0.2400	 78.8012	  78.801	  94.315
 1573	  0.2400	 78.8512	  78.851	  94.375
 1574	  0.2400	 78.9012	  78.901	  94.435
 1575	  0.2400	 78.9512	  78.951	  94.495
 1576	  0.2400	 79.0013	  79.001	  94.555
 1577	  0.2400	 79.0525	  79.052	  94.615
 1578	  0.2400	 79.1012	  79.101	  94.675
 1579	  0.2400	 79.1525	  79.152	  94.735
 1580	  0.2400	 79.2025	  79.202	  94.795
 1581	  0.2400	 79.2525	  79.252	  94.855
 1582	  0.2400	 79.3025	  79.302	  94.915
 1583	  0.2400	 79.3537	  79.354	  94.975
 1584	  0.2400	 79.4025	  79.402	  95.035
 1585	  0.2400	 79.4487	  79.449	  95.095
 1586	  0.2400	 79.5000	  79.500	  95.155
 1587	  0.2400	 79.5500	  79.550	  95.215
 1588	  0.2400	 79.6000	  79.600	  95.275
 1589	  0.2400	 79.6500	  79.650	  95.335
 1590	  0.2400	 79.7000	  79.700	  95.395
 1591	  0.2400	 79.7500	  79.750	  95.455
 1592	  0.2400	 79.8012	  79.801	  95.515
 1593	  0.2400	 79.8500	  79.850	  95.575
 1594	  0.2400	 79.9000	  79.900	  95.635
 1595	  0.2400	 79.9512	  79.951	  95.695
 1596	  0.2400	 80.0013	  80.001	  95.755
 1597	  0.2400	 80.0512	  80.051	  95.815
 1598	  0.2400	 80.1012	  80.101	  95.875
 1599	  0.2400	 80.1525	  80.152	  95.935
 1600	  0.2400	 80.2012	  80.201	  95.995
 1601	  0.2400	 80.2513	  80.251	  96.055
 1602	  0.2400	 80.3025	  80.302	  96.115
 1603	  0.2400	 80.3512	  80.351	  96.175
 1604	  0.2400	 80.4012	  80.401	  96.235
 1605	  0.2400	 80.4512	  80.451	  96.295
 1606	  0.2400	 80.5025	  80.502	  96.355
 1607	  0.2400	 80.5512	  80.551	  96.415
 1608	  0.2400	 80.6025	  80.603	  96.475
 1609	  0.2400	 80.6512	  80.651	  96.535
 1610	  0.2400	 80.7012	  80.701	  96.595
 1611	  0.2400	 80.7525	  80.752	  96.655
 1612	  0.2400	 80.8025	  80.802	  96.715
 1613	  0.2400	 80.8525	  80.853	  96.775
 1614	  0.2400	 80.9025	  80.902	  96.835
 1615	  0.2400	 80.9525	  80.952	  96.895
 1616	  0.2400	 81.0025	  81.002	  96.955
 1617	  0.2400	 81.0537	  81.054	  97.015
 1618	  0.2400	 81.1037	  81.104	  97.075
 1619	  0.2400	 81.1525	  81.152	  97.135
 1620	  0.2400	 81.2038	  81.204	  97.195
 1621	  0.2400	 81.2537	  81.254	  97.255
 1622	  0.2400	 81.3037	  81.304	  97.315
 1623	  0.2400	 81.3537	  81.354	  97.375
 1624	  0.2400	 81.4037	  81.404	  97.435
 1625	  0.2400	 81.4538	  81.454	  97.495
 1626	  0.2400	 81.5037	  81.504	  97.555
 1627	  0.2400	 81.5550	  81.555	  97.615
 1628	  0.2400	 81.6037	  81.604	  97.675
 1629	  0.2400	 81.6550	  81.655	  97.735
 1630	  0.2400	 81.7050	  81.705	  97.795
 1631	  0.2400	 81.7550	  81.755	  97.855
 1632	  0.2400	 81.8050	  81.805	  97.915
 1633	  0.2400	 81.8562	  81.856	  97.975
 1634	  0.2400	 81.9062	  81.906	  98.035
 1635	  0.2400	 81.9562	  81.956	  98.095
 1636	  0.2400	 82.0062	  82.006	  98.155
 1637	  0.2400	 82.0563	  82.056	  98.215
 1638	  0.2400	 82.1075	  82.107	  98.275
 1639	  0.2400	 82.1562	  82.156	  98.335
 1640	  0.2400	 82.2075	  82.207	  98.395
 1641	  0.2400	 82.2575	  82.257	  98.455
 1642	  0.2400	 82.3075	  82.307	  98.515
 1643	  0.2400	 82.3575	  82.357	  98.575
 1644	  0.2400	 82.4075	  82.408	  98.635
 1645	  0.2400	 82.4587	  82.459	  98.695
 1646	  0.2400	 82.5075	  82.507	  98.755
 1647	  0.2400	 82.5587	  82.559	  98.815
 1648	  0.2400	 82.6087	  82.609	  98.875
 1649	  0.2400	 82.6600	  82.660	  98.935
 1650	  0.2400	 82.7100	  82.710	  98.995
 1651	  0.2400	 82.7600	  82.760	  99.055
 1652	  0.2400	 82.8100	  82.810	  99.115
 1653	  0.2400	 82.8600	  82.860	  99.175
 1654	  0.2400	 82.9112	  82.911	  99.235
 1655	  0.2400	 82.9613	  82.961	  99.295
 1656	  0.2400	 83.0112	  83.011	  99.355
 1657	  0.2400	 83.0612	  83.061	  99.415
 1658	  0.2400	 83.1125	  83.112	  99.475
 1659	  0.2400	 83.1625	  83.162	  99.535
 1660	  0.2400	 83.2125	  83.213	  99.595
 1661	  0.2400	 83.2625	  83.262	  99.655
 1662	  0.2400	 83.3125	  83.312	  99.715
 1663	  0.2400	 83.3637	  83.364	  99.775
 1664	  0.2400	 83.4137	  83.414	  99.835
 1665	  0.2400	 83.4637	  83.464	  99.895
 1666	  0.2400	 83.5137	  83.514	  99.955
 1667	  0.2400	 83.5650	  83.565	 100.015
 1668	  0.2400	 83.6137	  83.614	 100.075
 1669	  0.2400	 83.6637	  83.664	 100.135
 1670	  0.2400	 83.7150	  83.715	 100.195
 1671	  0.2400	 83.7650	  83.765	 100.255
 1672	  0.2400	 83.8162	  83.816	 100.315
 1673	  0.2400	 83.8662	  83.866	 100.375
 1674	  0.2400	 83.9162	  83.916	 100.435
 1675	  0.2400	 83.9662	  83.966	 100.495
 1676	  0.2400	 84.0163	  84.016	 100.555
 1677	  0.2400	 84.0675	  84.067	 100.615
 1678	  0.2400	 84.1175	  84.118	 100.675
 1679	  0.2400	 84.1675	  84.167	 100.735
 1680	  0.2400	 84.2175	  84.217	 100.795
 1681	  0.2400	 84.2687	  84.269	 100.855
 1682	  0.2400	 84.3175	  84.317	 100.915
 1683	  0.2400	 84.3688	  84.369	 100.975
 1684	  0.2400	 84.4187	  84.419	 101.035
 1685	  0.2400	 84.4688	  84.469	 101.095
 1686	  0.2400	 84.5187	  84.519	 101.155
 1687	  0.2400	 84.5687	  84.569	 101.215
 1688	  0.2400	 84.6188	  84.619	 101.275
 1689	  0.2400	 84.6687	  84.669	 101.335
 1690	  0.2400	 84.7200	  84.720	 101.395
 1691	  0.2400	 84.7700	  84.770	 101.455
 1692	  0.2400	 84.8200	  84.820	 101.515
 1693	  0.2400	 84.8700	  84.870	 101.575
 1694	  0.2400	 84.9200	  84.920	 101.635
 1695	  0.2400	 84.9712	  84.971	 101.695
 1696	  0.2400	 85.0200	  85.020	 101.755
 1697	  0.2400	 85.0713	  85.071	 101.815
 1698	  0.2400	 85.1212	  85.121	 101.875
 1699	  0.2400	 85.1700	  85.170	 101.935
 1700	  0.2400	 85.2200	  85.220	 101.995
 1701	  0.2400	 85.2700	  85.270	 102.055
 1702	  0.2400	 85.3213	  85.321	 102.115
 1703	  0.2400	 85.3712	  85.371	 102.175
 1704	  0.2400	 85.4212	  85.421	 102.235
 1705	  0.2400	 85.4712	  85.471	 102.295
 1706	  0.2400	 85.5212	  85.521	 102.355
 1707	  0.2400	 85.5713	  85.571	 102.415
 1708	  0.2400	 85.6225	  85.622	 102.475
 1709	  0.2400	 85.6712	  85.671	 102.535
 1710	  0.2400	 85.7212	  85.721	 102.595
 1711	  0.2400	 85.7725	  85.772	 102.655
 1712	  0.2400	 85.8225	  85.822	 102.715
 1713	  0.2400	 85.8725	  85.872	 102.775
 1714	  0.2400	 85.9225	  85.923	 102.835
 1715	  0.2400	 85.9737	  85.974	 102.895
 1716	  0.2400	 86.0238	  86.024	 102.955
 1717	  0.2400	 86.0750	  86.075	 103.015
 1718	  0.2400	 86.1237	  86.124	 103.075
 1719	  0.2400	 86.1725	  86.173	 103.135
 1720	  0.2400	 86.2225	  86.222	 103.195
 1721	  0.2400	 86.2725	  86.272	 103.255
 1722	  0.2400	 86.3237	  86.324	 103.315
 1723	  0.2400	 86.3737	  86.374	 103.375
 1724	  0.2400	 86.4238	  86.424	 103.435
 1725	  0.2400	 86.4737	  86.474	 103.495
 1726	  0.2400	 86.5238	  86.524	 103.555
 1727	  0.2400	 86.5737	  86.574	 103.615
 1728	  0.2400	 86.6237	  86.624	 103.675
 1729	  0.2400	 86.6750	  86.675	 103.735
 1730	  0.2400	 86.7250	  86.725	 103.795
 1731	  0.2400	 86.7750	  86.775	 103.855
 1732	  0.2400	 86.8250	  86.825	 103.915
 1733	  0.2400	 86.8763	  86.876	 103.975
 1734	  0.2400	 86.9262	  86.926	 104.035
 1735	  0.2400	 86.9737	  86.974	 104.095
 1736	  0.2400	 87.0250	  87.025	 104.155
 1737	  0.2400	 87.0750	  87.075	 104.215
 1738	  0.2400	 87.1263	  87.126	 104.275
 1739	  0.2400	 87.1762	  87.176	 104.335
 1740	  0.2400	 87.2262	  87.226	 104.395
 1741	  0.2400	 87.2762	  87.276	 104.455
 1742	  0.2400	 87.3275	  87.327	 104.515
 1743	  0.2400	 87.3763	  87.376	 104.575
 1744	  0.2400	 87.4262	  87.426	 104.635
 1745	  0.2400	 87.4775	  87.478	 104.695
 1746	  0.2400	 87.5275	  87.527	 104.755
 1747	  0.2400	 87.5788	  87.579	 104.815
 1748	  0.2400	 87.6275	  87.627	 104.875
 1749	  0.2400	 87.6775	  87.677	 104.935
 1750	  0.2400	 87.7275	  87.728	 104.995
 1751	  0.2400	 87.7775	  87.777	 105.055
 1752	  0.2400	 87.8275	  87.827	 105.115
 1753	  0.2400	 87.8775	  87.877	 105.175
 1754	  0.2400	 87.9287	  87.929	 105.235
 1755	  0.2400	 87.9787	  87.979	 105.295
 1756	  0.2400	 88.0287	  88.029	 105.355
 1757	  0.2400	 88.0788	  88.079	 105.415
 1758	  0.2400	 88.1287	  88.129	 105.475
 1759	  0.2400	 88.1787	  88.179	 105.535
 1760	  0.2400	 88.2287	  88.229	 105.595
 1761	  0.2400	 88.2800	  88.280	 105.655
 1762	  0.2400	 88.3300	  88.330	 105.715
 1763	  0.2400	 88.3800	  88.380	 105.775
 1764	  0.2400	 88.4300	  88.430	 105.835
 1765	  0.2400	 88.4800	  88.480	 105.895
 1766	  0.2400	 88.5300	  88.530	 105.955
 1767	  0.2400	 88.5812	  88.581	 106.015
 1768	  0.2400	 88.6300	  88.630	 106.075
 1769	  0.2400	 88.6800	  88.680	 106.135
 1770	  0.2400	 88.7312	  88.731	 106.195
 1771	  0.2400	 88.7800	  88.780	 106.255
 1772	  0.2400	 88.8300	  88.830	 106.315
 1773	  0.2400	 88.8800	  88.880	 106.375
 1774	  0.2400	 88.9300	  88.930	 106.435
 1775	  0.2400	 88.9800	  88.980	 106.495
 1776	  0.2400	 89.0300	  89.030	 106.555
 1777	  0.2400	 89.0812	  89.081	 106.615
 1778	  0.2400	 89.1312	  89.131	 106.675
 1779	  0.2400	 89.1813	  89.181	 106.735
 1780	  0.2400	 89.2312	  89.231	 106.795
 1781	  0.2400	 89.2812	  89.281	 106.855
 1782	  0.2400	 89.3312	  89.331	 106.915
 1783	  0.2400	 89.3825	  89.382	 106.975
 1784	  0.2400	 89.4313	  89.431	 107.035
 1785	  0.2400	 89.4812	  89.481	 107.095
 1786	  0.2400	 89.5312	  89.531	 107.155
 1787	  0.2400	 89.5812	  89.581	 107.215
 1788	  0.2400	 89.6312	  89.631	 107.275
 1789	  0.2400	 89.6813	  89.681	 107.335
 1790	  0.2400	 89.7312	  89.731	 107.395
 1791	  0.2400	 89.7812	  89.781	 107.455
 1792	  0.2400	 89.8325	  89.832	 107.515
 1793	  0.2400	 89.8812	  89.881	 107.575
 1794	  0.2400	 89.9313	  89.931	 107.635
 1795	  0.2400	 89.9825	  89.982	 107.695
 1796	  0.2400	 90.0325	  90.033	 107.755
 1797	  0.2400	 90.0825	  90.082	 107.815
 1798	  0.2400	 90.1325	  90.132	 107.875
 1799	  0.2400	 90.1837	  90.184	 107.935
 1800	  0.2400	 90.2325	  90.232	 107.995
 1801	  0.2400	 90.2825	  90.283	 108.055
 1802	  0.2400	 90.3337	  90.334	 108.115
 1803	  0.2400	 90.3838	  90.384	 108.175
 1804	  0.2400	 90.4337	  90.434	 108.235
 1805	  0.2400	 90.4837	  90.484	 108.295
 1806	  0.2400	 90.5350	  90.535	 108.355
 1807	  0.2400	 90.5837	  90.584	 108.415
 1808	  0.2400	 90.6350	  90.635	 108.475
 1809	  0.2400	 90.6850	  90.685	 108.535
 1810	  0.2400	 90.7337	  90.734	 108.595
 1811	  0.2400	 90.7850	  90.785	 108.655
 1812	  0.2400	 90.8350	  90.835	 108.715
 1813	  0.2400	 90.8850	  90.885	 108.775
 1814	  0.2400	 90.9350	  90.935	 108.835
 1815	  0.2400	 90.9850	  90.985	 108.895
 1816	  0.2400	 91.0350	  91.035	 108.955
 1817	  0.2400	 91.0863	  91.086	 109.015
 1818	  0.2400	 91.1362	  91.136	 109.075
 1819	  0.2400	 91.1850	  91.185	 109.135
 1820	  0.2400	 91.2362	  91.236	 109.195
 1821	  0.2400	 91.2862	  91.286	 109.255
 1822	  0.2400	 91.3363	  91.336	 109.315
 1823	  0.2400	 91.3862	  91.386	 109.375
 1824	  0.2400	 91.4375	  91.438	 109.435
 1825	  0.2400	 91.4862	  91.486	 109.495
 1826	  0.2400	 91.5362	  91.536	 109.555
 1827	  0.2400	 91.5875	  91.588	 109.615
 1828	  0.2400	 91.6375	  91.637	 109.675
 1829	  0.2400	 91.6875	  91.688	 109.735
 1830	  0.2400	 91.7375	  91.737	 109.795
 1831	  0.2400	 91.7887	  91.789	 109.855
 1832	  0.2400	 91.8375	  91.838	 109.915
 1833	  0.2400	 91.8887	  91.889	 109.975
 1834	  0.2400	 91.9388	  91.939	 110.035
 1835	  0.2400	 91.9887	  91.989	 110.095
 1836	  0.2400	 92.0387	  92.039	 110.155
 1837	  0.2400	 92.0887	  92.089	 110.215
 1838	  0.2400	 92.1400	  92.140	 110.275
 1839	  0.2400	 92.1900	  92.190	 110.335
 1840	  0.2400	 92.2400	  92.240	 110.395
 1841	  0.2400	 92.2900	  92.290	 110.455
 1842	  0.2400	 92.3412	  92.341	 110.515
 1843	  0.2400	 92.3900	  92.390	 110.575
 1844	  0.2400	 92.4400	  92.440	 110.635
 1845	  0.2400	 92.4912	  92.491	 110.695
 1846	  0.2400	 92.5412	  92.541	 110.755
 1847	  0.2400	 92.5912	  92.591	 110.815
 1848	  0.2400	 92.6413	  92.641	 110.875
 1849	  0.2400	 92.6925	  92.692	 110.935
 1850	  0.2400	 92.7412	  92.741	 110.995
 1851	  0.2400	 92.7912	  92.791	 111.055
 1852	  0.2400	 92.8412	  92.841	 111.115
 1853	  0.2400	 92.8913	  92.891	 111.175
 1854	  0.2400	 92.9425	  92.942	 111.235
 1855	  0.2400	 92.9925	  92.993	 111.295
 1856	  0.2400	 93.0425	  93.042	 111.355
 1857	  0.2400	 93.0925	  93.092	 111.415
 1858	  0.2400	 93.1425	  93.142	 111.475
 1859	  0.2400	 93.1925	  93.192	 111.535
 1860	  0.2400	 93.2425	  93.243	 111.595
 1861	  0.2400	 93.2937	  93.294	 111.655
 1862	  0.2400	 93.3425	  93.342	 111.715
 1863	  0.2400	 93.3937	  93.394	 111.775
 1864	  0.2400	 93.4437	  93.444	 111.835
 1865	  0.2400	 93.4938	  93.494	 111.895
 1866	  0.2400	 93.5437	  93.544	 111.955
 1867	  0.2400	 93.5950	  93.595	 112.015
 1868	  0.2400	 93.6437	  93.644	 112.075
 1869	  0.2400	 93.6937	  93.694	 112.135
 1870	  0.2400	 93.7438	  93.744	 112.195
 1871	  0.2400	 93.7937	  93.794	 112.255
 1872	  0.2400	 93.8450	  93.845	 112.315
 1873	  0.2400	 93.8950	  93.895	 112.375
 1874	  0.2400	 93.9450	  93.945	 112.435
 1875	  0.2400	 93.9950	  93.995	 112.495
 1876	  0.2400	 94.0450	  94.045	 112.555
 1877	  0.2400	 94.0950	  94.095	 112.615
 1878	  0.2400	 94.1450	  94.145	 112.675
 1879	  0.2400	 94.1963	  94.196	 112.735
 1880	  0.2400	 94.2462	  94.246	 112.795
 1881	  0.2400	 94.2975	  94.298	 112.855
 1882	  0.2400	 94.3462	  94.346	 112.915
 1883	  0.2400	 94.3975	  94.397	 112.975
 1884	  0.2400	 94.4475	  94.447	 113.035
 1885	  0.2400	 94.4975	  94.497	 113.095
 1886	  0.2400	 94.5475	  94.548	 113.155
 1887	  0.2400	 94.5975	  94.597	 113.215
 1888	  0.2400	 94.6488	  94.649	 113.275
 1889	  0.2400	 94.6987	  94.699	 113.335
 1890	  0.2400	 94.7487	  94.749	 113.395
 1891	  0.2400	 94.8000	  94.800	 113.455
 1892	  0.2400	 94.8500	  94.850	 113.515
 1893	  0.2400	 94.8988	  94.899	 113.575
 1894	  0.2400	 94.9487	  94.949	 113.635
 1895	  0.2400	 95.0000	  95.000	 113.695
 1896	  0.2400	 95.0500	  95.050	 113.755
 1897	  0.2400	 95.1012	  95.101	 113.815
 1898	  0.2400	 95.1488	  95.149	 113.875
 1899	  0.2400	 95.2000	  95.200	 113.935
 1900	  0.2400	 95.2500	  95.250	 113.995
 1901	  0.2400	 95.3000	  95.300	 114.055
 1902	  0.2400	 95.3500	  95.350	 114.115
 1903	  0.2400	 95.4000	  95.400	 114.175
 1904	  0.2400	 95.4512	  95.451	 114.235
 1905	  0.2400	 95.5013	  95.501	 114.295
 1906	  0.2400	 95.5512	  95.551	 114.355
 1907	  0.2400	 95.6012	  95.601	 114.415
 1908	  0.2400	 95.6525	  95.652	 114.475
 1909	  0.2400	 95.7025	  95.702	 114.535
 1910	  0.2400	 95.7525	  95.752	 114.595
 1911	  0.2400	 95.8025	  95.802	 114.655
 1912	  0.2400	 95.8525	  95.853	 114.715
 1913	  0.2400	 95.9012	  95.901	 114.775
 1914	  0.2400	 95.9512	  95.951	 114.835
 1915	  0.2400	 96.0025	  96.002	 114.895
 1916	  0.2400	 96.0525	  96.052	 114.955
 1917	  0.2400	 96.1025	  96.103	 115.015
 1918	  0.2400	 96.1525	  96.152	 115.075
 1919	  0.2400	 96.2025	  96.202	 115.135
 1920	  0.2400	 96.2537	  96.254	 115.195
 1921	  0.2400	 96.3037	  96.304	 115.255
 1922	  0.2400	 96.3537	  96.354	 115.315
 1923	  0.2400	 96.4037	  96.404	 115.375
 1924	  0.2400	 96.4550	  96.455	 115.435
 1925	  0.2400	 96.5050	  96.505	 115.495
 1926	  0.2400	 96.5550	  96.555	 115.555
 1927	  0.2400	 96.6050	  96.605	 115.615
 1928	  0.2400	 96.6550	  96.655	 115.675
 1929	  0.2400	 96.7062	  96.706	 115.735
 1930	  0.2400	 96.7550	  96.755	 115.795
 1931	  0.2400	 96.8050	  96.805	 115.855
 1932	  0.2400	 96.8537	  96.854	 115.915
 1933	  0.2400	 96.9050	  96.905	 115.975
 1934	  0.2400	 96.9550	  96.955	 116.035
 1935	  0.2400	 97.0037	  97.004	 116.095
 1936	  0.2400	 97.0550	  97.055	 116.155
 1937	  0.2400	 97.1050	  97.105	 116.215
 1938	  0.2400	 97.1562	  97.156	 116.275
 1939	  0.2400	 97.2050	  97.205	 116.335
 1940	  0.2400	 97.2562	  97.256	 116.395
 1941	  0.2400	 97.3063	  97.306	 116.455
 1942	  0.2400	 97.3562	  97.356	 116.515
 1943	  0.2400	 97.4062	  97.406	 116.575
 1944	  0.2400	 97.4562	  97.456	 116.635
 1945	  0.2400	 97.5062	  97.506	 116.695
 1946	  0.2400	 97.5563	  97.556	 116.755
 1947	  0.2400	 97.6050	  97.605	 116.815
 1948	  0.2400	 97.6550	  97.655	 116.875
 1949	  0.2400	 97.7062	  97.706	 116.935
 1950	  0.2400	 97.7562	  97.756	 116.995
 1951	  0.2400	 97.8050	  97.805	 117.055
 1952	  0.2400	 97.8562	  97.856	 117.115
 1953	  0.2400	 97.9062	  97.906	 117.175
 1954	  0.2400	 97.9562	  97.956	 117.235
 1955	  0.2400	 98.0062	  98.006	 117.295
 1956	  0.2400	 98.0563	  98.056	 117.355
 1957	  0.2400	 98.1062	  98.106	 117.415
 1958	  0.2400	 98.1575	  98.158	 117.475
 1959	  0.2400	 98.2075	  98.207	 117.535
 1960	  0.2400	 98.2575	  98.257	 117.595
 1961	  0.2400	 98.3063	  98.306	 117.655
 1962	  0.2400	 98.3562	  98.356	 117.715
 1963	  0.2400	 98.4075	  98.408	 117.775
 1964	  0.2400	 98.4575	  98.457	 117.835
 1965	  0.2400	 98.5075	  98.507	 117.895
 1966	  0.2400	 98.5575	  98.557	 117.955
 1967	  0.2400	 98.6087	  98.609	 118.015
 1968	  0.2400	 98.6587	  98.659	 118.075
 1969	  0.2400	 98.7075	  98.707	 118.135
 1970	  0.2400	 98.7588	  98.759	 118.195
 1971	  0.2400	 98.8087	  98.809	 118.255
 1972	  0.2400	 98.8600	  98.860	 118.315
 1973	  0.2400	 98.9087	  98.909	 118.375
 1974	  0.2400	 98.9587	  98.959	 118.435
 1975	  0.2400	 99.0088	  99.009	 118.495
 1976	  0.2400	 99.0587	  99.059	 118.555
 1977	  0.2400	 99.1087	  99.109	 118.615
 1978	  0.2400	 99.1587	  99.159	 118.675
 1979	  0.2400	 99.2100	  99.210	 118.735
 1980	  0.2400	 99.2600	  99.260	 118.795
 1981	  0.2400	 99.3100	  99.310	 118.855
 1982	  0.2400	 99.3600	  99.360	 118.915
 1983	  0.2400	 99.4100	  99.410	 118.975
 1984	  0.2400	 99.4600	  99.460	 119.035
 1985	  0.2400	 99.5100	  99.510	 119.095
 1986	  0.2400	 99.5600	  99.560	 119.155
 1987	  0.2400	 99.6100	  99.610	 119.215
 1988	  0.2400	 99.6612	  99.661	 119.275
 1989	  0.2400	 99.7113	  99.711	 119.335
 1990	  0.2400	 99.7612	  99.761	 119.395
 1991	  0.2400	 99.8112	  99.811	 119.455
 1992	  0.2400	 99.8625	  99.862	 119.515
 1993	  0.2400	 99.9112	  99.911	 119.575
 1994	  0.2400	 99.9613	  99.961	 119.635
 1995	  0.2400	100.0125	 100.012	 119.695
 1996	  0.2400	100.0625	 100.062	 119.755
 1997	  0.2400	100.1112	 100.111	 119.815
 1998	  0.2400	100.1612	 100.161	 119.875
 1999	  0.2400	100.2125	 100.213	 119.935
 2000	  0.2400	100.2625	 100.262	 119.995
 2001	  0.2400	100.3125	 100.312	 120.055
 2002	  0.2400	100.3625	 100.362	 120.115
 2003	  0.2400	100.4125	 100.412	 120.175
 2004	  0.2400	100.4637	 100.464	 120.235
 2005	  0.2400	100.5137	 100.514	 120.295
 2006	  0.2400	100.5638	 100.564	 120.355
 2007	  0.2400	100.6137	 100.614	 120.415
 2008	  0.2400	100.6650	 100.665	 120.475
 2009	  0.2400	100.7150	 100.715	 120.535
 2010	  0.2400	100.7637	 100.764	 120.595
 2011	  0.2400	100.8150	 100.815	 120.655
 2012	  0.2400	100.8637	 100.864	 120.715
 2013	  0.2400	100.9150	 100.915	 120.775
 2014	  0.2400	100.9650	 100.965	 120.835
 2015	  0.2400	101.0150	 101.015	 120.895
 2016	  0.2400	101.0650	 101.065	 120.955
 2017	  0.2400	101.1162	 101.116	 121.015
 2018	  0.2400	101.1662	 101.166	 121.075
 2019	  0.2400	101.2150	 101.215	 121.135
 2020	  0.2400	101.2663	 101.266	 121.195
 2021	  0.2400	101.3162	 101.316	 121.255
 2022	  0.2400	101.3662	 101.366	 121.315
 2023	  0.2400	101.4162	 101.416	 121.375
 2024	  0.2400	101.4675	 101.467	 121.435
 2025	  0.2400	101.5163	 101.516	 121.495
 2026	  0.2400	101.5662	 101.566	 121.555
 2027	  0.2400	101.6162	 101.616	 121.615
 2028	  0.2400	101.6662	 101.666	 121.675
 2029	  0.2400	101.7162	 101.716	 121.735
 2030	  0.2400	101.7663	 101.766	 121.795
 2031	  0.2400	101.8162	 101.816	 121.855
 2032	  0.2400	101.8662	 101.866	 121.915
 2033	  0.2400	101.9175	 101.917	 121.975
 2034	  0.2400	101.9675	 101.967	 122.035
 2035	  0.2400	102.0163	 102.016	 122.095
 2036	  0.2400	102.0675	 102.067	 122.155
 2037	  0.2400	102.1162	 102.116	 122.215
 2038	  0.2400	102.1675	 102.167	 122.275
 2039	  0.2400	102.2175	 102.217	 122.335
 2040	  0.2400	102.2675	 102.267	 122.395
 2041	  0.2400	102.3175	 102.317	 122.455
 2042	  0.2400	102.3675	 102.368	 122.515
 2043	  0.2400	102.4175	 102.417	 122.575
 2044	  0.2400	102.4675	 102.467	 122.635
 2045	  0.2400	102.5187	 102.519	 122.695
 2046	  0.2400	102.5687	 102.569	 122.755
 2047	  0.2400	102.6187	 102.619	 122.815
 2048	  0.2400	102.6687	 102.669	 122.875
 2049	  0.2400	102.7200	 102.720	 122.935
 2050	  0.2400	102.7700	 102.770	 122.995
 2051	  0.2400	102.8200	 102.820	 123.055
 2052	  0.2400	102.8700	 102.870	 123.115
 2053	  0.2400	102.9200	 102.920	 123.175
 2054	  0.2400	102.9700	 102.970	 123.235
 2055	  0.2400	103.0200	 103.020	 123.295
 2056	  0.2400	103.0713	 103.071	 123.355
 2057	  0.2400	103.1212	 103.121	 123.415
 2058	  0.2400	103.1712	 103.171	 123.475
 2059	  0.2400	103.2212	 103.221	 123.535
 2060	  0.2400	103.2712	 103.271	 123.595
 2061	  0.2400	103.3225	 103.322	 123.655
 2062	  0.2400	103.3712	 103.371	 123.715
 2063	  0.2400	103.4225	 103.423	 123.775
 2064	  0.2400	103.4725	 103.472	 123.835
 2065	  0.2400	103.5238	 103.524	 123.895
 2066	  0.2400	103.5725	 103.572	 123.955
 2067	  0.2400	103.6237	 103.624	 124.015
 2068	  0.2400	103.6737	 103.674	 124.075
 2069	  0.2400	103.7237	 103.724	 124.135
 2070	  0.2400	103.7738	 103.774	 124.195
 2071	  0.2400	103.8237	 103.824	 124.255
 2072	  0.2400	103.8750	 103.875	 124.315
 2073	  0.2400	103.9250	 103.925	 124.375
 2074	  0.2400	103.9750	 103.975	 124.435
 2075	  0.2400	104.0250	 104.025	 124.495
 2076	  0.2400	104.0750	 104.075	 124.555
 2077	  0.2400	104.1263	 104.126	 124.615
 2078	  0.2400	104.1762	 104.176	 124.675
 2079	  0.2400	104.2262	 104.226	 124.735
 2080	  0.2400	104.2762	 104.276	 124.795
 2081	  0.2400	104.3275	 104.327	 124.855
 2082	  0.2400	104.3763	 104.376	 124.915
 2083	  0.2400	104.4275	 104.427	 124.975
 2084	  0.2400	104.4775	 104.478	 125.035
 2085	  0.2400	104.5275	 104.527	 125.095
 2086	  0.2400	104.5788	 104.579	 125.155
 2087	  0.2400	104.6287	 104.629	 125.215
 2088	  0.2400	104.6787	 104.679	 125.275
 2089	  0.2400	104.7287	 104.729	 125.335
 2090	  0.2400	104.7800	 104.780	 125.395
 2091	  0.2400	104.8300	 104.830	 125.455
 2092	  0.2400	104.8800	 104.880	 125.515
 2093	  0.2400	104.9300	 104.930	 125.575
 2094	  0.2400	104.9800	 104.980	 125.635
 2095	  0.2400	105.0300	 105.030	 125.695
 2096	  0.2400	105.0800	 105.080	 125.755
 2097	  0.2400	105.1312	 105.131	 125.815
 2098	  0.2400	105.1812	 105.181	 125.875
 2099	  0.2400	105.2312	 105.231	 125.935
 2100	  0.2400	105.2800	 105.280	 125.995
 2101	  0.2400	105.3300	 105.330	 126.055
 2102	  0.2400	105.3800	 105.380	 126.115
 2103	  0.2400	105.4300	 105.430	 126.175
 2104	  0.2400	105.4812	 105.481	 126.235
 2105	  0.2400	105.5312	 105.531	 126.295
 2106	  0.2400	105.5812	 105.581	 126.355
 2107	  0.2400	105.6312	 105.631	 126.415
 2108	  0.2400	105.6812	 105.681	 126.475
 2109	  0.2400	105.7312	 105.731	 126.535
 2110	  0.2400	105.7812	 105.781	 126.595
 2111	  0.2400	105.8325	 105.832	 126.655
 2112	  0.2400	105.8812	 105.881	 126.715
 2113	  0.2400	105.9300	 105.930	 126.775
 2114	  0.2400	105.9800	 105.980	 126.835
 2115	  0.2400	106.0300	 106.030	 126.895
 2116	  0.2400	106.0800	 106.080	 126.955
 2117	  0.2400	106.1300	 106.130	 127.015
 2118	  0.2400	106.1800	 106.180	 127.075
 2119	  0.2400	106.2300	 106.230	 127.135
 2120	  0.2400	106.2812	 106.281	 127.195
 2121	  0.2400	106.3300	 106.330	 127.255
 2122	  0.2400	106.3812	 106.381	 127.315
 2123	  0.2400	106.4300	 106.430	 127.375
 2124	  0.2400	106.4812	 106.481	 127.435
 2125	  0.2400	106.5312	 106.531	 127.495
 2126	  0.2400	106.5812	 106.581	 127.555
 2127	  0.2400	106.6312	 106.631	 127.615
 2128	  0.2400	106.6812	 106.681	 127.675
 2129	  0.2400	106.7325	 106.732	 127.735
 2130	  0.2400	106.7825	 106.783	 127.795
 2131	  0.2400	106.8325	 106.832	 127.855
 2132	  0.2400	106.8825	 106.882	 127.915
 2133	  0.2400	106.9337	 106.934	 127.975
 2134	  0.2400	106.9837	 106.984	 128.035
 2135	  0.2400	107.0325	 107.033	 128.095
 2136	  0.2400	107.0837	 107.084	 128.155
 2137	  0.2400	107.1338	 107.134	 128.215
 2138	  0.2400	107.1837	 107.184	 128.275
 2139	  0.2400	107.2337	 107.234	 128.335
 2140	  0.2400	107.2850	 107.285	 128.395
 2141	  0.2400	107.3350	 107.335	 128.455
 2142	  0.2400	107.3850	 107.385	 128.515
 2143	  0.2400	107.4350	 107.435	 128.575
 2144	  0.2400	107.4850	 107.485	 128.635
 2145	  0.2400	107.5362	 107.536	 128.695
 2146	  0.2400	107.5850	 107.585	 128.755
 2147	  0.2400	107.6362	 107.636	 128.815
 2148	  0.2400	107.6862	 107.686	 128.875
 2149	  0.2400	107.7375	 107.737	 128.935
 2150	  0.2400	107.7862	 107.786	 128.995
 2151	  0.2400	107.8363	 107.836	 129.055
 2152	  0.2400	107.8862	 107.886	 129.115
 2153	  0.2400	107.9362	 107.936	 129.175
 2154	  0.2400	107.9862	 107.986	 129.235
 2155	  0.2400	108.0362	 108.036	 129.295
 2156	  0.2400	108.0875	 108.087	 129.355
 2157	  0.2400	108.1375	 108.137	 129.415
 2158	  0.2400	108.1888	 108.189	 129.475
 2159	  0.2400	108.2375	 108.237	 129.535
 2160	  0.2400	108.2875	 108.287	 129.595
 2161	  0.2400	108.3387	 108.339	 129.655
 2162	  0.2400	108.3887	 108.389	 129.715
 2163	  0.2400	108.4388	 108.439	 129.775
 2164	  0.2400	108.4875	 108.487	 129.835
 2165	  0.2400	108.5387	 108.539	 129.895
 2166	  0.2400	108.5887	 108.589	 129.955
 2167	  0.2400	108.6400	 108.640	 130.015
 2168	  0.2400	108.6900	 108.690	 130.075
 2169	  0.2400	108.7387	 108.739	 130.135
 2170	  0.2400	108.7900	 108.790	 130.195
 2171	  0.2400	108.8400	 108.840	 130.255
 2172	  0.2400	108.8913	 108.891	 130.315
 2173	  0.2400	108.9400	 108.940	 130.375
 2174	  0.2400	108.9912	 108.991	 130.435
 2175	  0.2400	109.0412	 109.041	 130.495
 2176	  0.2400	109.0912	 109.091	 130.555
 2177	  0.2400	109.1413	 109.141	 130.615
 2178	  0.2400	109.1900	 109.190	 130.675
 2179	  0.2400	109.2412	 109.241	 130.735
 2180	  0.2400	109.2900	 109.290	 130.795
 2181	  0.2400	109.3412	 109.341	 130.855
 2182	  0.2400	109.3913	 109.391	 130.915
 2183	  0.2400	109.4412	 109.441	 130.975
 2184	  0.2400	109.4912	 109.491	 131.035
 2185	  0.2400	109.5412	 109.541	 131.095
 2186	  0.2400	109.5912	 109.591	 131.155
 2187	  0.2400	109.6413	 109.641	 131.215
 2188	  0.2400	109.6925	 109.692	 131.275
 2189	  0.2400	109.7412	 109.741	 131.335
 2190	  0.2400	109.7912	 109.791	 131.395
 2191	  0.2400	109.8412	 109.841	 131.455
 2192	  0.2400	109.8913	 109.891	 131.515
 2193	  0.2400	109.9412	 109.941	 131.575
 2194	  0.2400	109.9912	 109.991	 131.635
 2195	  0.2400	110.0412	 110.041	 131.695
 2196	  0.2400	110.0912	 110.091	 131.755
 2197	  0.2400	110.1413	 110.141	 131.815
 2198	  0.2400	110.1912	 110.191	 131.875
 2199	  0.2400	110.2412	 110.241	 131.935
 2200	  0.2400	110.2912	 110.291	 131.995
 2201	  0.2400	110.3400	 110.340	 132.055
 2202	  0.2400	110.3913	 110.391	 132.115
 2203	  0.2400	110.4412	 110.441	 132.175
 2204	  0.2400	110.4912	 110.491	 132.235
 2205	  0.2400	110.5412	 110.541	 132.295
 2206	  0.2400	110.5912	 110.591	 132.355
 2207	  0.2400	110.6413	 110.641	 132.415
 2208	  0.2400	110.6912	 110.691	 132.475
 2209	  0.2400	110.7412	 110.741	 132.535
 2210	  0.2400	110.7912	 110.791	 132.595
 2211	  0.2400	110.8412	 110.841	 132.655
 2212	  0.2400	110.8925	 110.892	 132.715
 2213	  0.2400	110.9425	 110.942	 132.775
 2214	  0.2400	110.9925	 110.993	 132.835
 2215	  0.2400	111.0437	 111.044	 132.895
 2216	  0.2400	111.0925	 111.092	 132.955
 2217	  0.2400	111.1425	 111.142	 133.015
 2218	  0.2400	111.1925	 111.192	 133.075
 2219	  0.2400	111.2425	 111.243	 133.135
 2220	  0.2400	111.2925	 111.292	 133.195
 2221	  0.2400	111.3425	 111.342	 133.255
 2222	  0.2400	111.3937	 111.394	 133.315
 2223	  0.2400	111.4437	 111.444	 133.375
 2224	  0.2400	111.4937	 111.494	 133.435
 2225	  0.2400	111.5437	 111.544	 133.495
 2226	  0.2400	111.5938	 111.594	 133.555
 2227	  0.2400	111.6437	 111.644	 133.615
 2228	  0.2400	111.6937	 111.694	 133.675
 2229	  0.2400	111.7437	 111.744	 133.735
 2230	  0.2400	111.7937	 111.794	 133.795
 2231	  0.2400	111.8438	 111.844	 133.855
 2232	  0.2400	111.8937	 111.894	 133.915
 2233	  0.2400	111.9450	 111.945	 133.975
 2234	  0.2400	111.9950	 111.995	 134.035
 2235	  0.2400	112.0450	 112.045	 134.095
 2236	  0.2400	112.0950	 112.095	 134.155
 2237	  0.2400	112.1450	 112.145	 134.215
 2238	  0.2400	112.1963	 112.196	 134.275
 2239	  0.2400	112.2462	 112.246	 134.335
 2240	  0.2400	112.2962	 112.296	 134.395
 2241	  0.2400	112.3462	 112.346	 134.455
 2242	  0.2400	112.3975	 112.397	 134.515
 2243	  0.2400	112.4475	 112.447	 134.575
 2244	  0.2400	112.4962	 112.496	 134.635
 2245	  0.2400	112.5475	 112.548	 134.695
 2246	  0.2400	112.5975	 112.597	 134.755
 2247	  0.2400	112.6488	 112.649	 134.815
 2248	  0.2400	112.6975	 112.697	 134.875
 2249	  0.2400	112.7487	 112.749	 134.935
 2250	  0.2400	112.7987	 112.799	 134.995
 2251	  0.2400	112.8487	 112.849	 135.055
 2252	  0.2400	112.8988	 112.899	 135.115
 2253	  0.2400	112.9500	 112.950	 135.175
 2254	  0.2400	113.0000	 113.000	 135.235
 2255	  0.2400	113.0500	 113.050	 135.295
 2256	  0.2400	113.1012	 113.101	 135.355
 2257	  0.2400	113.1512	 113.151	 135.415
 2258	  0.2400	113.2012	 113.201	 135.475
 2259	  0.2400	113.2500	 113.250	 135.535
 2260	  0.2400	113.3012	 113.301	 135.595
 2261	  0.2400	113.3512	 113.351	 135.655
 2262	  0.2400	113.4012	 113.401	 135.715
 2263	  0.2400	113.4512	 113.451	 135.775
 2264	  0.2400	113.5013	 113.501	 135.835
 2265	  0.2400	113.5525	 113.552	 135.895
 2266	  0.2400	113.6025	 113.603	 135.955
 2267	  0.2400	113.6525	 113.652	 136.015
 2268	  0.2400	113.7025	 113.702	 136.075
 2269	  0.2400	113.7525	 113.752	 136.135
 2270	  0.2400	113.8037	 113.804	 136.195
 2271	  0.2400	113.8525	 113.853	 136.255
 2272	  0.2400	113.9037	 113.904	 136.315
 2273	  0.2400	113.9525	 113.952	 136.375
 2274	  0.2400	114.0037	 114.004	 136.435
 2275	  0.2400	114.0537	 114.054	 136.495
 2276	  0.2400	114.1037	 114.104	 136.555
 2277	  0.2400	114.1537	 114.154	 136.615
 2278	  0.2400	114.2038	 114.204	 136.675
 2279	  0.2400	114.2537	 114.254	 136.735
 2280	  0.2400	114.3037	 114.304	 136.795
 2281	  0.2400	114.3537	 114.354	 136.855
 2282	  0.2400	114.4037	 114.404	 136.915
 2283	  0.2400	114.4550	 114.455	 136.975
 2284	  0.2400	114.5050	 114.505	 137.035
 2285	  0.2400	114.5537	 114.554	 137.095
 2286	  0.2400	114.6050	 114.605	 137.155
 2287	  0.2400	114.6550	 114.655	 137.215
 2288	  0.2400	114.7050	 114.705	 137.275
 2289	  0.2400	114.7550	 114.755	 137.335
 2290	  0.2400	114.8062	 114.806	 137.395
 2291	  0.2400	114.8562	 114.856	 137.455
 2292	  0.2400	114.9050	 114.905	 137.515
 2293	  0.2400	114.9550	 114.955	 137.575
 2294	  0.2400	115.0050	 115.005	 137.635
 2295	  0.2400	115.0562	 115.056	 137.695
 2296	  0.2400	115.1062	 115.106	 137.755
 2297	  0.2400	115.1575	 115.158	 137.815
 2298	  0.2400	115.2062	 115.206	 137.875
 2299	  0.2400	115.2575	 115.257	 137.935
 2300	  0.2400	115.3075	 115.307	 137.995
 2301	  0.2400	115.3575	 115.357	 138.055
 2302	  0.2400	115.4075	 115.408	 138.115
 2303	  0.2400	115.4575	 115.457	 138.175
 2304	  0.2400	115.5088	 115.509	 138.235
 2305	  0.2400	115.5587	 115.559	 138.295
 2306	  0.2400	115.6087	 115.609	 138.355
 2307	  0.2400	115.6587	 115.659	 138.415
 2308	  0.2400	115.7100	 115.710	 138.475
 2309	  0.2400	115.7600	 115.760	 138.535
 2310	  0.2400	115.8087	 115.809	 138.595
 2311	  0.2400	115.8600	 115.860	 138.655
 2312	  0.2400	115.9087	 115.909	 138.715
 2313	  0.2400	115.9600	 115.960	 138.775
 2314	  0.2400	116.0088	 116.009	 138.835
 2315	  0.2400	116.0600	 116.060	 138.895
 2316	  0.2400	116.1100	 116.110	 138.955
 2317	  0.2400	116.1600	 116.160	 139.015
 2318	  0.2400	116.2100	 116.210	 139.075
 2319	  0.2400	116.2600	 116.260	 139.135
 2320	  0.2400	116.3112	 116.311	 139.195
 2321	  0.2400	116.3612	 116.361	 139.255
 2322	  0.2400	116.4112	 116.411	 139.315
 2323	  0.2400	116.4613	 116.461	 139.375
 2324	  0.2400	116.5125	 116.512	 139.435
 2325	  0.2400	116.5625	 116.562	 139.495
 2326	  0.2400	116.6125	 116.612	 139.555
 2327	  0.2400	116.6625	 116.662	 139.615
 2328	  0.2400	116.7100	 116.710	 139.675
 2329	  0.2400	116.7612	 116.761	 139.735
 2330	  0.2400	116.8112	 116.811	 139.795
 2331	  0.2400	116.8612	 116.861	 139.855
 2332	  0.2400	116.9112	 116.911	 139.915
 2333	  0.2400	116.9625	 116.962	 139.975
 2334	  0.2400	117.0125	 117.012	 140.035
 2335	  0.2400	117.0625	 117.062	 140.095
 2336	  0.2400	117.1125	 117.112	 140.155
 2337	  0.2400	117.1625	 117.162	 140.215
 2338	  0.2400	117.2137	 117.214	 140.275
 2339	  0.2400	117.2637	 117.264	 140.335
 2340	  0.2400	117.3137	 117.314	 140.395
 2341	  0.2400	117.3637	 117.364	 140.455
 2342	  0.2400	117.4150	 117.415	 140.515
 2343	  0.2400	117.4637	 117.464	 140.575
 2344	  0.2400	117.5137	 117.514	 140.635
 2345	  0.2400	117.5637	 117.564	 140.695
 2346	  0.2400	117.6137	 117.614	 140.755
 2347	  0.2400	117.6637	 117.664	 140.815
 2348	  0.2400	117.7137	 117.714	 140.875
 2349	  0.2400	117.7637	 117.764	 140.935
 2350	  0.2400	117.8137	 117.814	 140.995
 2351	  0.2400	117.8637	 117.864	 141.055
 2352	  0.2400	117.9150	 117.915	 141.115
 2353	  0.2400	117.9650	 117.965	 141.175
 2354	  0.2400	118.0150	 118.015	 141.235
 2355	  0.2400	118.0650	 118.065	 141.295
 2356	  0.2400	118.1162	 118.116	 141.355
 2357	  0.2400	118.1650	 118.165	 141.415
 2358	  0.2400	118.2162	 118.216	 141.475
 2359	  0.2400	118.2650	 118.265	 141.535
 2360	  0.2400	118.3150	 118.315	 141.595
 2361	  0.2400	118.3662	 118.366	 141.655
 2362	  0.2400	118.4162	 118.416	 141.715
 2363	  0.2400	118.4662	 118.466	 141.775
 2364	  0.2400	118.5163	 118.516	 141.835
 2365	  0.2400	118.5662	 118.566	 141.895
 2366	  0.2400	118.6150	 118.615	 141.955
 2367	  0.2400	118.6662	 118.666	 142.015
 2368	  0.2400	118.7162	 118.716	 142.075
 2369	  0.2400	118.7650	 118.765	 142.135
 2370	  0.2400	118.8162	 118.816	 142.195
 2371	  0.2400	118.8662	 118.866	 142.255
 2372	  0.2400	118.9162	 118.916	 142.315
 2373	  0.2400	118.9662	 118.966	 142.375
 2374	  0.2400	119.0163	 119.016	 142.435
 2375	  0.2400	119.0662	 119.066	 142.495
 2376	  0.2400	119.1162	 119.116	 142.555
 2377	  0.2400	119.1662	 119.166	 142.615
 2378	  0.2400	119.2162	 119.216	 142.675
 2379	  0.2400	119.2663	 119.266	 142.735
 2380	  0.2400	119.3162	 119.316	 142.795
 2381	  0.2400	119.3675	 119.368	 142.855
 2382	  0.2400	119.4175	 119.417	 142.915
 2383	  0.2400	119.4675	 119.467	 142.975
 2384	  0.2400	119.5175	 119.517	 143.035
 2385	  0.2400	119.5675	 119.567	 143.095
 2386	  0.2400	119.6187	 119.619	 143.155
 2387	  0.2400	119.6687	 119.669	 143.215
 2388	  0.2400	119.7188	 119.719	 143.275
 2389	  0.2400	119.7687	 119.769	 143.335
 2390	  0.2400	119.8200	 119.820	 143.395
 2391	  0.2400	119.8687	 119.869	 143.455
 2392	  0.2400	119.9200	 119.920	 143.515
 2393	  0.2400	119.9700	 119.970	 143.575
 2394	  0.2400	120.0200	 120.020	 143.635
 2395	  0.2400	120.0700	 120.070	 143.695
 2396	  0.2400	120.1200	 120.120	 143.755
 2397	  0.2400	120.1700	 120.170	 143.815
 2398	  0.2400	120.2200	 120.220	 143.875
 2399	  0.2400	120.2712	 120.271	 143.935
 2400	  0.2400	120.3200	 120.320	 143.995
 2401	  0.2400	120.3700	 120.370	 144.055
 2402	  0.2400	120.4212	 120.421	 144.115
 2403	  0.2400	120.4712	 120.471	 144.175
 2404	  0.2400	120.5225	 120.522	 144.235
 2405	  0.2400	120.5725	 120.572	 144.295
 2406	  0.2400	120.6225	 120.622	 144.355
 2407	  0.2400	120.6725	 120.673	 144.415
 2408	  0.2400	120.7237	 120.724	 144.475
 2409	  0.2400	120.7725	 120.772	 144.535
 2410	  0.2400	120.8225	 120.822	 144.595
 2411	  0.2400	120.8737	 120.874	 144.655
 2412	  0.2400	120.9237	 120.924	 144.715
 2413	  0.2400	120.9737	 120.974	 144.775
 2414	  0.2400	121.0238	 121.024	 144.835
 2415	  0.2400	121.0750	 121.075	 144.895
 2416	  0.2400	121.1237	 121.124	 144.955
 2417	  0.2400	121.1750	 121.175	 145.015
 2418	  0.2400	121.2250	 121.225	 145.075
 2419	  0.2400	121.2750	 121.275	 145.135
 2420	  0.2400	121.3250	 121.325	 145.195
 2421	  0.2400	121.3750	 121.375	 145.255
 2422	  0.2400	121.4262	 121.426	 145.315
 2423	  0.2400	121.4762	 121.476	 145.375
 2424	  0.2400	121.5275	 121.527	 145.435
 2425	  0.2400	121.5762	 121.576	 145.495
 2426	  0.2400	121.6262	 121.626	 145.555
 2427	  0.2400	121.6775	 121.677	 145.615
 2428	  0.2400	121.7262	 121.726	 145.675
 2429	  0.2400	121.7775	 121.777	 145.735
 2430	  0.2400	121.8275	 121.827	 145.795
 2431	  0.2400	121.8775	 121.877	 145.855
 2432	  0.2400	121.9275	 121.927	 145.915
 2433	  0.2400	121.9775	 121.978	 145.975
 2434	  0.2400	122.0275	 122.027	 146.035
 2435	  0.2400	122.0775	 122.077	 146.095
 2436	  0.2400	122.1287	 122.129	 146.155
 2437	  0.2400	122.1787	 122.179	 146.215
 2438	  0.2400	122.2287	 122.229	 146.275
 2439	  0.2400	122.2787	 122.279	 146.335
 2440	  0.2400	122.3300	 122.330	 146.395
 2441	  0.2400	122.3787	 122.379	 146.455
 2442	  0.2400	122.4300	 122.430	 146.515
 2443	  0.2400	122.4800	 122.480	 146.575
 2444	  0.2400	122.5300	 122.530	 146.635
 2445	  0.2400	122.5800	 122.580	 146.695
 2446	  0.2400	122.6300	 122.630	 146.755
 2447	  0.2400	122.6800	 122.680	 146.815
 2448	  0.2400	122.7300	 122.730	 146.875
 2449	  0.2400	122.7800	 122.780	 146.935
 2450	  0.2400	122.8300	 122.830	 146.995
 2451	  0.2400	122.8800	 122.880	 147.055
 2452	  0.2400	122.9300	 122.930	 147.115
 2453	  0.2400	122.9800	 122.980	 147.175
 2454	  0.2400	123.0300	 123.030	 147.235
 2455	  0.2400	123.0800	 123.080	 147.295
 2456	  0.2400	123.1300	 123.130	 147.355
 2457	  0.2400	123.1800	 123.180	 147.415
 2458	  0.2400	123.2312	 123.231	 147.475
 2459	  0.2400	123.2812	 123.281	 147.535
 2460	  0.2400	123.3312	 123.331	 147.595
 2461	  0.2400	123.3812	 123.381	 147.655
 2462	  0.2400	123.4312	 123.431	 147.715
 2463	  0.2400	123.4825	 123.482	 147.775
 2464	  0.2400	123.5325	 123.532	 147.835
 2465	  0.2400	123.5825	 123.582	 147.895
 2466	  0.2400	123.6325	 123.632	 147.955
 2467	  0.2400	123.6837	 123.684	 148.015
 2468	  0.2400	123.7337	 123.734	 148.075
 2469	  0.2400	123.7837	 123.784	 148.135
 2470	  0.2400	123.8337	 123.834	 148.195
 2471	  0.2400	123.8838	 123.884	 148.255
 2472	  0.2400	123.9350	 123.935	 148.315
 2473	  0.2400	123.9850	 123.985	 148.375
 2474	  0.2400	124.0350	 124.035	 148.435
 2475	  0.2400	124.0850	 124.085	 148.495
 2476	  0.2400	124.1350	 124.135	 148.555
 2477	  0.2400	124.1862	 124.186	 148.615
 2478	  0.2400	124.2362	 124.236	 148.675
 2479	  0.2400	124.2862	 124.286	 148.735
 2480	  0.2400	124.3363	 124.336	 148.795
 2481	  0.2400	124.3875	 124.387	 148.855
 2482	  0.2400	124.4375	 124.438	 148.915
 2483	  0.2400	124.4875	 124.487	 148.975
 2484	  0.2400	124.5387	 124.539	 149.035
 2485	  0.2400	124.5875	 124.587	 149.095
 2486	  0.2400	124.6387	 124.639	 149.155
 2487	  0.2400	124.6887	 124.689	 149.215
 2488	  0.2400	124.7400	 124.740	 149.275
 2489	  0.2400	124.7900	 124.790	 149.335
 2490	  0.2400	124.8400	 124.840	 149.395
 2491	  0.2400	124.8900	 124.890	 149.455
 2492	  0.2400	124.9400	 124.940	 149.515
 2493	  0.2400	124.9900	 124.990	 149.575
 2494	  0.2400	125.0400	 125.040	 149.635
 2495	  0.2400	125.0912	 125.091	 149.695
 2496	  0.2400	125.1413	 125.141	 149.755
 2497	  0.2400	125.1912	 125.191	 149.815
 2498	  0.2400	125.2412	 125.241	 149.875
 2499	  0.2400	125.2925	 125.292	 149.935
 2500	  0.2400	125.3425	 125.342	 149.995
 2501	  0.2400	125.3913	 125.391	 150.055
 2502	  0.2400	125.4425	 125.442	 150.115
 2503	  0.2400	125.4925	 125.493	 150.175
 2504	  0.2400	125.5437	 125.544	 150.235
 2505	  0.2400	125.5925	 125.592	 150.295
 2506	  0.2400	125.6437	 125.644	 150.355
 2507	  0.2400	125.6937	 125.694	 150.415
 2508	  0.2400	125.7437	 125.744	 150.475
 2509	  0.2400	125.7937	 125.794	 150.535
 2510	  0.2400	125.8438	 125.844	 150.595
 2511	  0.2400	125.8950	 125.895	 150.655
 2512	  0.2400	125.9425	 125.942	 150.715
 2513	  0.2400	125.9925	 125.993	 150.775
 2514	  0.2400	126.0425	 126.042	 150.835
 2515	  0.2400	126.0938	 126.094	 150.895
 2516	  0.2400	126.1437	 126.144	 150.955
 2517	  0.2400	126.1937	 126.194	 151.015
 2518	  0.2400	126.2437	 126.244	 151.075
 2519	  0.2400	126.2937	 126.294	 151.135
 2520	  0.2400	126.3438	 126.344	 151.195
 2521	  0.2400	126.3937	 126.394	 151.255
 2522	  0.2400	126.4450	 126.445	 151.315
 2523	  0.2400	126.4937	 126.494	 151.375
 2524	  0.2400	126.5450	 126.545	 151.435
 2525	  0.2400	126.5950	 126.595	 151.495
 2526	  0.2400	126.6450	 126.645	 151.555
 2527	  0.2400	126.6950	 126.695	 151.615
 2528	  0.2400	126.7450	 126.745	 151.675
 2529	  0.2400	126.7950	 126.795	 151.735
 2530	  0.2400	126.8450	 126.845	 151.795
 2531	  0.2400	126.8937	 126.894	 151.855
 2532	  0.2400	126.9437	 126.944	 151.915
 2533	  0.2400	126.9937	 126.994	 151.975
 2534	  0.2400	127.0437	 127.044	 152.035
 2535	  0.2400	127.0938	 127.094	 152.095
 2536	  0.2400	127.1437	 127.144	 152.155
 2537	  0.2400	127.1937	 127.194	 152.215
 2538	  0.2400	127.2437	 127.244	 152.275
 2539	  0.2400	127.2937	 127.294	 152.335
 2540	  0.2400	127.3438	 127.344	 152.395
 2541	  0.2400	127.3937	 127.394	 152.455
 2542	  0.2400	127.4450	 127.445	 152.515
 2543	  0.2400	127.4950	 127.495	 152.575
 2544	  0.2400	127.5450	 127.545	 152.635
 2545	  0.2400	127.5950	 127.595	 152.695
 2546	  0.2400	127.6450	 127.645	 152.755
 2547	  0.2400	127.6950	 127.695	 152.815
 2548	  0.2400	127.7450	 127.745	 152.875
 2549	  0.2400	127.7950	 127.795	 152.935
 2550	  0.2400	127.8450	 127.845	 152.995
 2551	  0.2400	127.8950	 127.895	 153.055
 2552	  0.2400	127.9463	 127.946	 153.115
 2553	  0.2400	127.9962	 127.996	 153.175
 2554	  0.2400	128.0462	 128.046	 153.235
 2555	  0.2400	128.0963	 128.096	 153.295
 2556	  0.2400	128.1475	 128.147	 153.355
 2557	  0.2400	128.1962	 128.196	 153.415
 2558	  0.2400	128.2475	 128.247	 153.475
 2559	  0.2400	128.2975	 128.298	 153.535
 2560	  0.2400	128.3475	 128.348	 153.595
 2561	  0.2400	128.3975	 128.397	 153.655
 2562	  0.2400	128.4475	 128.447	 153.715
 2563	  0.2400	128.4987	 128.499	 153.775
 2564	  0.2400	128.5488	 128.549	 153.835
 2565	  0.2400	128.5987	 128.599	 153.895
 2566	  0.2400	128.6487	 128.649	 153.955
 2567	  0.2400	128.7000	 128.700	 154.015
 2568	  0.2400	128.7500	 128.750	 154.075
 2569	  0.2400	128.8000	 128.800	 154.135
 2570	  0.2400	128.8487	 128.849	 154.195
 2571	  0.2400	128.8987	 128.899	 154.255
 2572	  0.2400	128.9500	 128.950	 154.315
 2573	  0.2400	129.0000	 129.000	 154.375
 2574	  0.2400	129.0500	 129.050	 154.435
 2575	  0.2400	129.1000	 129.100	 154.495
 2576	  0.2400	129.1500	 129.150	 154.555
 2577	  0.2400	129.2000	 129.200	 154.615
 2578	  0.2400	129.2500	 129.250	 154.675
 2579	  0.2400	129.3013	 129.301	 154.735
 2580	  0.2400	129.3512	 129.351	 154.795
 2581	  0.2400	129.4012	 129.401	 154.855
 2582	  0.2400	129.4512	 129.451	 154.915
 2583	  0.2400	129.5013	 129.501	 154.975
 2584	  0.2400	129.5513	 129.551	 155.035
 2585	  0.2400	129.6012	 129.601	 155.095
 2586	  0.2400	129.6512	 129.651	 155.155
 2587	  0.2400	129.7012	 129.701	 155.215
 2588	  0.2400	129.7525	 129.753	 155.275
 2589	  0.2400	129.8013	 129.801	 155.335
 2590	  0.2400	129.8525	 129.852	 155.395
 2591	  0.2400	129.9025	 129.902	 155.455
 2592	  0.2400	129.9525	 129.952	 155.515
 2593	  0.2400	130.0025	 130.003	 155.575
 2594	  0.2400	130.0525	 130.052	 155.635
 2595	  0.2400	130.1025	 130.102	 155.695
 2596	  0.2400	130.1525	 130.152	 155.755
 2597	  0.2400	130.2038	 130.204	 155.815
 2598	  0.2400	130.2525	 130.253	 155.875
 2599	  0.2400	130.3037	 130.304	 155.935
 2600	  0.2400	130.3537	 130.354	 155.995
 2601	  0.2400	130.4025	 130.402	 156.055
 2602	  0.2400	130.4538	 130.454	 156.115
 2603	  0.2400	130.5038	 130.504	 156.175
 2604	  0.2400	130.5537	 130.554	 156.235
 2605	  0.2400	130.6037	 130.604	 156.295
 2606	  0.2400	130.6537	 130.654	 156.355
 2607	  0.2400	130.7038	 130.704	 156.415
 2608	  0.2400	130.7550	 130.755	 156.475
 2609	  0.2400	130.8050	 130.805	 156.535
 2610	  0.2400	130.8537	 130.854	 156.595
 2611	  0.2400	130.9037	 130.904	 156.655
 2612	  0.2400	130.9538	 130.954	 156.715
 2613	  0.2400	131.0038	 131.004	 156.775
 2614	  0.2400	131.0537	 131.054	 156.835
 2615	  0.2400	131.1050	 131.105	 156.895
 2616	  0.2400	131.1537	 131.154	 156.955
 2617	  0.2400	131.2050	 131.205	 157.015
 2618	  0.2400	131.2550	 131.255	 157.075
 2619	  0.2400	131.3037	 131.304	 157.135
 2620	  0.2400	131.3550	 131.355	 157.195
 2621	  0.2400	131.4037	 131.404	 157.255
 2622	  0.2400	131.4550	 131.455	 157.315
 2623	  0.2400	131.5050	 131.505	 157.375
 2624	  0.2400	131.5550	 131.555	 157.435
 2625	  0.2400	131.6050	 131.605	 157.495
 2626	  0.2400	131.6550	 131.655	 157.555
 2627	  0.2400	131.7050	 131.705	 157.615
 2628	  0.2400	131.7550	 131.755	 157.675
 2629	  0.2400	131.8062	 131.806	 157.735
 2630	  0.2400	131.8550	 131.855	 157.795
 2631	  0.2400	131.9062	 131.906	 157.855
 2632	  0.2400	131.9563	 131.956	 157.915
 2633	  0.2400	132.0075	 132.007	 157.975
 2634	  0.2400	132.0562	 132.056	 158.035
 2635	  0.2400	132.1075	 132.107	 158.095
 2636	  0.2400	132.1575	 132.158	 158.155
 2637	  0.2400	132.2075	 132.208	 158.215
 2638	  0.2400	132.2575	 132.257	 158.275
 2639	  0.2400	132.3075	 132.307	 158.335
 2640	  0.2400	132.3587	 132.359	 158.395
 2641	  0.2400	132.4088	 132.409	 158.455
 2642	  0.2400	132.4587	 132.459	 158.515
 2643	  0.2400	132.5087	 132.509	 158.575
 2644	  0.2400	132.5587	 132.559	 158.635
 2645	  0.2400	132.6100	 132.610	 158.695
 2646	  0.2400	132.6600	 132.660	 158.755
 2647	  0.2400	132.7100	 132.710	 158.815
 2648	  0.2400	132.7600	 132.760	 158.875
 2649	  0.2400	132.8112	 132.811	 158.935
 2650	  0.2400	132.8613	 132.861	 158.995
 2651	  0.2400	132.9112	 132.911	 159.055
 2652	  0.2400	132.9612	 132.961	 159.115
 2653	  0.2400	133.0112	 133.011	 159.175
 2654	  0.2400	133.0625	 133.062	 159.235
 2655	  0.2400	133.1113	 133.111	 159.295
 2656	  0.2400	133.1625	 133.162	 159.355
 2657	  0.2400	133.2125	 133.212	 159.415
 2658	  0.2400	133.2637	 133.264	 159.475
 2659	  0.2400	133.3138	 133.314	 159.535
 2660	  0.2400	133.3638	 133.364	 159.595
 2661	  0.2400	133.4137	 133.414	 159.655
 2662	  0.2400	133.4637	 133.464	 159.715
 2663	  0.2400	133.5137	 133.514	 159.775
 2664	  0.2400	133.5638	 133.564	 159.835
 2665	  0.2400	133.6150	 133.615	 159.895
 2666	  0.2400	133.6650	 133.665	 159.955
 2667	  0.2400	133.7150	 133.715	 160.015
 2668	  0.2400	133.7650	 133.765	 160.075
 2669	  0.2400	133.8150	 133.815	 160.135
 2670	  0.2400	133.8662	 133.866	 160.195
 2671	  0.2400	133.9162	 133.916	 160.255
 2672	  0.2600	133.9662	 133.966	 160.315
 2673	  0.2400	134.0163	 134.016	 160.375
 2674	  0.2400	134.0675	 134.067	 160.435
 2675	  0.2400	134.1162	 134.116	 160.495
 2676	  0.2400	134.1662	 134.166	 160.555
 2677	  0.2400	134.2162	 134.216	 160.615
 2678	  0.2400	134.2663	 134.266	 160.675
 2679	  0.2400	134.3175	 134.317	 160.735
 2680	  0.2400	134.3675	 134.367	 160.795
 2681	  0.2400	134.4175	 134.417	 160.855
 2682	  0.2400	134.4675	 134.467	 160.915
 2683	  0.2400	134.5175	 134.518	 160.975
 2684	  0.2400	134.5675	 134.567	 161.035
 2685	  0.2400	134.6175	 134.617	 161.095
 2686	  0.2400	134.6687	 134.669	 161.155
 2687	  0.2400	134.7175	 134.717	 161.215
 2688	  0.2400	134.7688	 134.769	 161.275
 2689	  0.2400	134.8187	 134.819	 161.335
 2690	  0.2400	134.8687	 134.869	 161.395
 2691	  0.2400	134.9187	 134.919	 161.455
 2692	  0.2400	134.9700	 134.970	 161.515
 2693	  0.2400	135.0200	 135.020	 161.575
 2694	  0.2400	135.0700	 135.070	 161.635
 2695	  0.2400	135.1200	 135.120	 161.695
 2696	  0.2400	135.1700	 135.170	 161.755
 2697	  0.2400	135.2200	 135.220	 161.815
 2698	  0.2400	135.2700	 135.270	 161.875
 2699	  0.2400	135.3200	 135.320	 161.935
 2700	  0.2400	135.3700	 135.370	 161.995
 2701	  0.2400	135.4200	 135.420	 162.055
 2702	  0.2400	135.4675	 135.467	 162.115
 2703	  0.2400	135.5175	 135.518	 162.175
 2704	  0.2400	135.5675	 135.567	 162.235
 2705	  0.2400	135.6175	 135.617	 162.295
 2706	  0.2400	135.6675	 135.667	 162.355
 2707	  0.2400	135.7175	 135.717	 162.415
 2708	  0.2400	135.7688	 135.769	 162.475
 2709	  0.2400	135.8175	 135.817	 162.535
 2710	  0.2400	135.8675	 135.867	 162.595
 2711	  0.2400	135.9187	 135.919	 162.655
 2712	  0.2400	135.9688	 135.969	 162.715
 2713	  0.2600	136.0200	 136.020	 162.775
 2714	  0.2400	136.0700	 136.070	 162.835
 2715	  0.2400	136.1200	 136.120	 162.895
 2716	  0.2400	136.1700	 136.170	 162.955
 2717	  0.2400	136.2213	 136.221	 163.015
 2718	  0.2400	136.2700	 136.270	 163.075
 2719	  0.2400	136.3200	 136.320	 163.135
 2720	  0.2400	136.3712	 136.371	 163.195
 2721	  0.2400	136.4212	 136.421	 163.255
 2722	  0.2400	136.4713	 136.471	 163.315
 2723	  0.2400	136.5212	 136.521	 163.375
 2724	  0.2400	136.5725	 136.572	 163.435
 2725	  0.2600	136.6212	 136.621	 163.495
 2726	  0.2400	136.6712	 136.671	 163.555
 2727	  0.2400	136.7225	 136.723	 163.615
 2728	  0.2400	136.7725	 136.772	 163.675
 2729	  0.2400	136.8225	 136.822	 163.735
 2730	  0.2400	136.8725	 136.872	 163.795
 2731	  0.2600	136.9238	 136.924	 163.855
 2732	  0.2400	136.9737	 136.974	 163.915
 2733	  0.2400	137.0237	 137.024	 163.975
 2734	  0.2400	137.0737	 137.074	 164.035
 2735	  0.2400	137.1237	 137.124	 164.095
 2736	  0.2400	137.1750	 137.175	 164.155
 2737	  0.2400	137.2237	 137.224	 164.215
 2738	  0.2400	137.2737	 137.274	 164.275
 2739	  0.2400	137.3237	 137.324	 164.335
 2740	  0.2400	137.3750	 137.375	 164.395
 2741	  0.2400	137.4238	 137.424	 164.455
 2742	  0.2400	137.4750	 137.475	 164.515
 2743	  0.2400	137.5250	 137.525	 164.575
 2744	  0.2400	137.5750	 137.575	 164.635
 2745	  0.2400	137.6263	 137.626	 164.695
 2746	  0.2400	137.6750	 137.675	 164.755
 2747	  0.2400	137.7262	 137.726	 164.815
 2748	  0.2400	137.7762	 137.776	 164.875
 2749	  0.2400	137.8262	 137.826	 164.935
 2750	  0.2400	137.8763	 137.876	 164.995
 2751	  0.2400	137.9263	 137.926	 165.055
 2752	  0.2600	137.9762	 137.976	 165.115
 2753	  0.2400	138.0262	 138.026	 165.175
 2754	  0.2400	138.0775	 138.077	 165.235
 2755	  0.2400	138.1275	 138.128	 165.295
 2756	  0.2400	138.1775	 138.177	 165.355
 2757	  0.2400	138.2275	 138.227	 165.415
 2758	  0.2400	138.2787	 138.279	 165.475
 2759	  0.2400	138.3288	 138.329	 165.535
 2760	  0.2400	138.3788	 138.379	 165.595
 2761	  0.2600	138.4287	 138.429	 165.655
 2762	  0.2400	138.4787	 138.479	 165.715
 2763	  0.2400	138.5287	 138.529	 165.775
 2764	  0.2600	138.5788	 138.579	 165.835
 2765	  0.2400	138.6300	 138.630	 165.895
 2766	  0.2600	138.6787	 138.679	 165.955
 2767	  0.2400	138.7300	 138.730	 166.015
 2768	  0.2400	138.7800	 138.780	 166.075
 2769	  0.2400	138.8300	 138.830	 166.135
 2770	  0.2400	138.8788	 138.879	 166.195
 2771	  0.2400	138.9287	 138.929	 166.255
 2772	  0.2400	138.9800	 138.980	 166.315
 2773	  0.2600	139.0300	 139.030	 166.375
 2774	  0.2600	139.0800	 139.080	 166.435
 2775	  0.2400	139.1300	 139.130	 166.495
 2776	  0.2400	139.1800	 139.180	 166.555
 2777	  0.2600	139.2300	 139.230	 166.615
 2778	  0.2600	139.2800	 139.280	 166.675
 2779	  0.2400	139.3300	 139.330	 166.735
 2780	  0.2600	139.3800	 139.380	 166.795
 2781	  0.2600	139.4312	 139.431	 166.855
 2782	  0.2600	139.4800	 139.480	 166.915
 2783	  0.2400	139.5300	 139.530	 166.975
 2784	  0.2400	139.5800	 139.580	 167.035
 2785	  0.2400	139.6300	 139.630	 167.095
 2786	  0.2600	139.6800	 139.680	 167.155
 2787	  0.2600	139.7300	 139.730	 167.215
 2788	  0.2600	139.7800	 139.780	 167.275
 2789	  0.2600	139.8300	 139.830	 167.335
 2790	  0.2600	139.8800	 139.880	 167.395
 2791	  0.2400	139.9300	 139.930	 167.455
 2792	  0.2600	139.9812	 139.981	 167.515
 2793	  0.2600	140.0312	 140.031	 167.575
 2794	  0.2600	140.0800	 140.080	 167.635
 2795	  0.2600	140.1300	 140.130	 167.695
 2796	  0.2600	140.1800	 140.180	 167.755
 2797	  0.2600	140.2312	 140.231	 167.815
 2798	  0.2400	140.2800	 140.280	 167.875
 2799	  0.2600	140.3313	 140.331	 167.935
 2800	  0.2600	140.3812	 140.381	 167.995
 2801	  0.2600	140.4312	 140.431	 168.055
 2802	  0.2600	140.4812	 140.481	 168.115
 2803	  0.2600	140.5312	 140.531	 168.175
 2804	  0.2600	140.5813	 140.581	 168.235
 2805	  0.2600	140.6312	 140.631	 168.295
 2806	  0.2400	140.6825	 140.682	 168.355
 2807	  0.2600	140.7325	 140.732	 168.415
 2808	  0.2400	140.7825	 140.783	 168.475
 2809	  0.2600	140.8325	 140.833	 168.535
 2810	  0.2600	140.8825	 140.882	 168.595
 2811	  0.2600	140.9325	 140.932	 168.655
 2812	  0.2600	140.9825	 140.982	 168.715
 2813	  0.2600	141.0338	 141.034	 168.775
 2814	  0.2600	141.0837	 141.084	 168.835
 2815	  0.2600	141.1337	 141.134	 168.895
 2816	  0.2600	141.1837	 141.184	 168.955
 2817	  0.2600	141.2350	 141.235	 169.015
 2818	  0.2600	141.2838	 141.284	 169.075
 2819	  0.2600	141.3337	 141.334	 169.135
 2820	  0.2600	141.3850	 141.385	 169.195
 2821	  0.2600	141.4350	 141.435	 169.255
 2822	  0.2600	141.4863	 141.486	 169.315
 2823	  0.2600	141.5350	 141.535	 169.375
 2824	  0.2600	141.5862	 141.586	 169.435
 2825	  0.2600	141.6362	 141.636	 169.495
 2826	  0.2600	141.6850	 141.685	 169.555
 2827	  0.2600	141.7363	 141.736	 169.615
 2828	  0.2600	141.7862	 141.786	 169.675
 2829	  0.2600	141.8362	 141.836	 169.735
 2830	  0.2600	141.8875	 141.887	 169.795
 2831	  0.2600	141.9375	 141.938	 169.855
 2832	  0.2600	141.9875	 141.988	 169.915
 2833	  0.2600	142.0375	 142.037	 169.975
 2834	  0.2600	142.0875	 142.087	 170.035
 2835	  0.2600	142.1387	 142.139	 170.095
 2836	  0.2600	142.1888	 142.189	 170.155
 2837	  0.2600	142.2388	 142.239	 170.215
 2838	  0.2600	142.2900	 142.290	 170.275
 2839	  0.2600	142.3387	 142.339	 170.335
 2840	  0.2600	142.3900	 142.390	 170.395
 2841	  0.2600	142.4400	 142.440	 170.455
 2842	  0.2600	142.4900	 142.490	 170.515
 2843	  0.2600	142.5400	 142.540	 170.575
 2844	  0.2600	142.5900	 142.590	 170.635
 2845	  0.2600	142.6400	 142.640	 170.695
 2846	  0.2600	142.6900	 142.690	 170.755
 2847	  0.2600	142.7412	 142.741	 170.815
 2848	  0.2600	142.7912	 142.791	 170.875
 2849	  0.2600	142.8412	 142.841	 170.935
 2850	  0.2600	142.8913	 142.891	 170.995
 2851	  0.2600	142.9413	 142.941	 171.055
 2852	  0.2600	142.9912	 142.991	 171.115
 2853	  0.2600	143.0412	 143.041	 171.175
 2854	  0.2600	143.0925	 143.092	 171.235
 2855	  0.2600	143.1413	 143.141	 171.295
 2856	  0.2600	143.1925	 143.192	 171.355
 2857	  0.2600	143.2425	 143.242	 171.415
 2858	  0.2600	143.2925	 143.292	 171.475
 2859	  0.2600	143.3425	 143.342	 171.535
 2860	  0.2600	143.3913	 143.391	 171.595
 2861	  0.2600	143.4425	 143.442	 171.655
 2862	  0.2600	143.4925	 143.492	 171.715
 2863	  0.2600	143.5437	 143.544	 171.775
 2864	  0.2600	143.5925	 143.592	 171.835
 2865	  0.2600	143.6425	 143.643	 171.895
 2866	  0.2600	143.6937	 143.694	 171.955
 2867	  0.2600	143.7437	 143.744	 172.015
 2868	  0.2600	143.7937	 143.794	 172.075
 2869	  0.2600	143.8438	 143.844	 172.135
 2870	  0.2600	143.8938	 143.894	 172.195
 2871	  0.2600	143.9437	 143.944	 172.255
 2872	  0.2600	143.9937	 143.994	 172.315
 2873	  0.2600	144.0437	 144.044	 172.375
 2874	  0.2600	144.0938	 144.094	 172.435
 2875	  0.2600	144.1438	 144.144	 172.495
 2876	  0.2600	144.1937	 144.194	 172.555
 2877	  0.2600	144.2450	 144.245	 172.615
 2878	  0.2600	144.2950	 144.295	 172.675
 2879	  0.2600	144.3450	 144.345	 172.735
 2880	  0.2600	144.3950	 144.395	 172.795
 2881	  0.2600	144.4462	 144.446	 172.855
 2882	  0.2600	144.4962	 144.496	 172.915
 2883	  0.2600	144.5462	 144.546	 172.975
 2884	  0.2600	144.5963	 144.596	 173.035
 2885	  0.2600	144.6450	 144.645	 173.095
 2886	  0.2600	144.6950	 144.695	 173.155
 2887	  0.2600	144.7450	 144.745	 173.215
 2888	  0.2600	144.7962	 144.796	 173.275
 2889	  0.2600	144.8463	 144.846	 173.335
 2890	  0.2600	144.8962	 144.896	 173.395
 2891	  0.2600	144.9462	 144.946	 173.455
 2892	  0.2600	144.9975	 144.997	 173.515
 2893	  0.2600	145.0462	 145.046	 173.575
 2894	  0.2600	145.0975	 145.098	 173.635
 2895	  0.2600	145.1475	 145.147	 173.695
 2896	  0.2600	145.1975	 145.197	 173.755
 2897	  0.2600	145.2487	 145.249	 173.815
 2898	  0.2600	145.2988	 145.299	 173.875
 2899	  0.2600	145.3487	 145.349	 173.935
 2900	  0.2600	145.3987	 145.399	 173.995
 2901	  0.2600	145.4487	 145.449	 174.055
 2902	  0.2600	145.5000	 145.500	 174.115
 2903	  0.2600	145.5500	 145.550	 174.175
 2904	  0.2600	145.6000	 145.600	 174.235
 2905	  0.2600	145.6500	 145.650	 174.295
 2906	  0.2600	145.7012	 145.701	 174.355
 2907	  0.2600	145.7513	 145.751	 174.415
 2908	  0.2600	145.8013	 145.801	 174.475
 2909	  0.2600	145.8512	 145.851	 174.535
 2910	  0.2600	145.9012	 145.901	 174.595
 2911	  0.2600	145.9525	 145.952	 174.655
 2912	  0.2600	146.0013	 146.001	 174.715
 2913	  0.2600	146.0525	 146.052	 174.775
 2914	  0.2600	146.1025	 146.102	 174.835
 2915	  0.2600	146.1537	 146.154	 174.895
 2916	  0.2600	146.2025	 146.202	 174.955
 2917	  0.2600	146.2538	 146.254	 175.015
 2918	  0.2600	146.3037	 146.304	 175.075
 2919	  0.2600	146.3537	 146.354	 175.135
 2920	  0.2600	146.4037	 146.404	 175.195
 2921	  0.2600	146.4525	 146.452	 175.255
 2922	  0.2600	146.5025	 146.503	 175.315
 2923	  0.2600	146.5525	 146.552	 175.375
 2924	  0.2600	146.6037	 146.604	 175.435
 2925	  0.2600	146.6537	 146.654	 175.495
 2926	  0.2600	146.7025	 146.702	 175.555
 2927	  0.2600	146.7538	 146.754	 175.615
 2928	  0.2600	146.8037	 146.804	 175.675
 2929	  0.2600	146.8537	 146.854	 175.735
 2930	  0.2600	146.9037	 146.904	 175.795
 2931	  0.2600	146.9538	 146.954	 175.855
 2932	  0.2600	147.0038	 147.004	 175.915
 2933	  0.2600	147.0550	 147.055	 175.975
 2934	  0.2600	147.1050	 147.105	 176.035
 2935	  0.2600	147.1537	 147.154	 176.095
 2936	  0.2600	147.2038	 147.204	 176.155
 2937	  0.2600	147.2538	 147.254	 176.215
 2938	  0.2600	147.3050	 147.305	 176.275
 2939	  0.2600	147.3537	 147.354	 176.335
 2940	  0.2600	147.4050	 147.405	 176.395
 2941	  0.2600	147.4550	 147.455	 176.455
 2942	  0.2600	147.5050	 147.505	 176.515
 2943	  0.2600	147.5550	 147.555	 176.575
 2944	  0.2600	147.6050	 147.605	 176.635
 2945	  0.2600	147.6537	 147.654	 176.695
 2946	  0.2600	147.7038	 147.704	 176.755
 2947	  0.2600	147.7550	 147.755	 176.815
 2948	  0.2600	147.8050	 147.805	 176.875
 2949	  0.2600	147.8550	 147.855	 176.935
 2950	  0.2600	147.9050	 147.905	 176.995
 2951	  0.2600	147.9550	 147.955	 177.055
 2952	  0.2600	148.0050	 148.005	 177.115
 2953	  0.2600	148.0550	 148.055	 177.175
 2954	  0.2600	148.1050	 148.105	 177.235
 2955	  0.2600	148.1550	 148.155	 177.295
 2956	  0.2600	148.2050	 148.205	 177.355
 2957	  0.2600	148.2550	 148.255	 177.415
 2958	  0.2600	148.3050	 148.305	 177.475
 2959	  0.2600	148.3550	 148.355	 177.535
 2960	  0.2600	148.4050	 148.405	 177.595
 2961	  0.2600	148.4550	 148.455	 177.655
 2962	  0.2600	148.5050	 148.505	 177.715
 2963	  0.2600	148.5550	 148.555	 177.775
 2964	  0.2600	148.6050	 148.605	 177.835
 2965	  0.2600	148.6562	 148.656	 177.895
 2966	  0.2600	148.7050	 148.705	 177.955
 2967	  0.2600	148.7562	 148.756	 178.015
 2968	  0.2600	148.8062	 148.806	 178.075
 2969	  0.2600	148.8562	 148.856	 178.135
 2970	  0.2600	148.9062	 148.906	 178.195
 2971	  0.2600	148.9563	 148.956	 178.255
 2972	  0.2600	149.0062	 149.006	 178.315
 2973	  0.2600	149.0562	 149.056	 178.375
 2974	  0.2600	149.1062	 149.106	 178.435
 2975	  0.2600	149.1562	 149.156	 178.495
 2976	  0.2600	149.2063	 149.206	 178.555
 2977	  0.2600	149.2575	 149.257	 178.615
 2978	  0.2600	149.3062	 149.306	 178.675
 2979	  0.2600	149.3575	 149.357	 178.735
 2980	  0.2600	149.4075	 149.408	 178.795
 2981	  0.2600	149.4575	 149.458	 178.855
 2982	  0.2600	149.5075	 149.507	 178.915
 2983	  0.2600	149.5587	 149.559	 178.975
 2984	  0.2600	149.6087	 149.609	 179.035
 2985	  0.2600	149.6575	 149.658	 179.095
 2986	  0.2600	149.7075	 149.708	 179.155
 2987	  0.2600	149.7575	 149.757	 179.215
 2988	  0.2600	149.8087	 149.809	 179.275
 2989	  0.2600	149.8587	 149.859	 179.335
 2990	  0.2600	149.9088	 149.909	 179.395
 2991	  0.2600	149.9587	 149.959	 179.455
 2992	  0.2600	150.0087	 150.009	 179.515
 2993	  0.2600	150.0587	 150.059	 179.575
 2994	  0.2600	150.1087	 150.109	 179.635
 2995	  0.2600	150.1588	 150.159	 179.695
 2996	  0.2600	150.2087	 150.209	 179.755
 2997	  0.2600	150.2600	 150.260	 179.815
 2998	  0.2600	150.3100	 150.310	 179.875
 2999	  0.2600	150.3600	 150.360	 179.935
 3000	  0.2600	150.4100	 150.410	 179.995
 3001	  0.2600	150.4600	 150.460	 180.055
 3002	  0.2600	150.5112	 150.511	 180.115
 3003	  0.2600	150.5612	 150.561	 180.175
 3004	  0.2600	150.6113	 150.611	 180.235
 3005	  0.2600	150.6612	 150.661	 180.295
 3006	  0.2600	150.7112	 150.711	 180.355
 3007	  0.2600	150.7612	 150.761	 180.415
 3008	  0.2600	150.8112	 150.811	 180.475
 3009	  0.2600	150.8613	 150.861	 180.535
 3010	  0.2600	150.9112	 150.911	 180.595
 3011	  0.2600	150.9625	 150.962	 180.655
 3012	  0.2600	151.0112	 151.011	 180.715
 3013	  0.2600	151.0625	 151.062	 180.775
 3014	  0.2600	151.1125	 151.113	 180.835
 3015	  0.2600	151.1625	 151.162	 180.895
 3016	  0.2600	151.2125	 151.212	 180.955
 3017	  0.2600	151.2637	 151.264	 181.015
 3018	  0.2600	151.3125	 151.312	 181.075
 3019	  0.2600	151.3625	 151.363	 181.135
 3020	  0.2600	151.4137	 151.414	 181.195
 3021	  0.2600	151.4637	 151.464	 181.255
 3022	  0.2600	151.5137	 151.514	 181.315
 3023	  0.2600	151.5638	 151.564	 181.375
 3024	  0.2600	151.6137	 151.614	 181.435
 3025	  0.2600	151.6637	 151.664	 181.495
 3026	  0.2600	151.7137	 151.714	 181.555
 3027	  0.2600	151.7637	 151.764	 181.615
 3028	  0.2600	151.8138	 151.814	 181.675
 3029	  0.2600	151.8637	 151.864	 181.735
 3030	  0.2600	151.9137	 151.914	 181.795
 3031	  0.2600	151.9637	 151.964	 181.855
 3032	  0.2600	152.0137	 152.014	 181.915
 3033	  0.2600	152.0650	 152.065	 181.975
 3034	  0.2600	152.1137	 152.114	 182.035
 3035	  0.2600	152.1637	 152.164	 182.095
 3036	  0.2600	152.2150	 152.215	 182.155
 3037	  0.2600	152.2637	 152.264	 182.215
 3038	  0.2600	152.3150	 152.315	 182.275
 3039	  0.2400	152.3587	 152.359	 182.335
 3040	  0.2400	152.4088	 152.409	 182.395
 3041	  0.2400	152.4587	 152.459	 182.455
 3042	  0.2400	152.5100	 152.510	 182.515
 3043	  0.2400	152.5600	 152.560	 182.575
 3044	  0.2400	152.6100	 152.610	 182.635
 3045	  0.2400	152.6600	 152.660	 182.695
 3046	  0.2400	152.7100	 152.710	 182.755
 3047	  0.2400	152.7612	 152.761	 182.815
 3048	  0.2400	152.8100	 152.810	 182.875
 3049	  0.2400	152.8613	 152.861	 182.935
 3050	  0.2400	152.9112	 152.911	 182.995
 3051	  0.2400	152.9612	 152.961	 183.055
 3052	  0.2400	153.0112	 153.011	 183.115
 3053	  0.2400	153.0612	 153.061	 183.175
 3054	  0.2400	153.1125	 153.113	 183.235
 3055	  0.2400	153.1625	 153.162	 183.295
 3056	  0.2400	153.2125	 153.212	 183.355
 3057	  0.2400	153.2625	 153.262	 183.415
 3058	  0.2400	153.3138	 153.314	 183.475
 3059	  0.2400	153.3637	 153.364	 183.535
 3060	  0.2400	153.4137	 153.414	 183.595
 3061	  0.2400	153.4637	 153.464	 183.655
 3062	  0.2400	153.5137	 153.514	 183.715
 3063	  0.2400	153.5650	 153.565	 183.775
 3064	  0.2400	153.6150	 153.615	 183.835
 3065	  0.2400	153.6650	 153.665	 183.895
 3066	  0.2400	153.7150	 153.715	 183.955
 3067	  0.2400	153.7663	 153.766	 184.015
 3068	  0.2400	153.8163	 153.816	 184.075
 3069	  0.2400	153.8662	 153.866	 184.135
 3070	  0.2400	153.9175	 153.917	 184.195
 3071	  0.2400	153.9662	 153.966	 184.255
 3072	  0.2400	154.0175	 154.018	 184.315
 3073	  0.2400	154.0675	 154.067	 184.375
 3074	  0.2400	154.1187	 154.119	 184.435
 3075	  0.2400	154.1687	 154.169	 184.495
 3076	  0.2400	154.2175	 154.217	 184.555
 3077	  0.2400	154.2688	 154.269	 184.615
 3078	  0.2400	154.3187	 154.319	 184.675
 3079	  0.2400	154.3687	 154.369	 184.735
 3080	  0.2400	154.4187	 154.419	 184.795
 3081	  0.2400	154.4700	 154.470	 184.855
 3082	  0.2400	154.5200	 154.520	 184.915
 3083	  0.2400	154.5700	 154.570	 184.975
 3084	  0.2400	154.6212	 154.621	 185.035
 3085	  0.2400	154.6700	 154.670	 185.095
 3086	  0.2400	154.7213	 154.721	 185.155
 3087	  0.2400	154.7712	 154.771	 185.215
 3088	  0.2400	154.8212	 154.821	 185.275
 3089	  0.2400	154.8712	 154.871	 185.335
 3090	  0.2400	154.9225	 154.923	 185.395
 3091	  0.2400	154.9713	 154.971	 185.455
 3092	  0.2400	155.0225	 155.022	 185.515
 3093	  0.2400	155.0725	 155.072	 185.575
 3094	  0.2400	155.1225	 155.122	 185.635
 3095	  0.2400	155.1725	 155.173	 185.695
 3096	  0.2400	155.2225	 155.223	 185.755
 3097	  0.2400	155.2737	 155.274	 185.815
 3098	  0.2400	155.3237	 155.324	 185.875
 3099	  0.2400	155.3725	 155.372	 185.935
 3100	  0.2400	155.4225	 155.423	 185.995
 3101	  0.2400	155.4725	 155.473	 186.055
 3102	  0.2400	155.5237	 155.524	 186.115
 3103	  0.2200	155.5737	 155.574	 186.175
 3104	  0.2200	155.6237	 155.624	 186.235
 3105	  0.2400	155.6738	 155.674	 186.295
 3106	  0.2400	155.7250	 155.725	 186.355
 3107	  0.2200	155.7737	 155.774	 186.415
 3108	  0.2200	155.8250	 155.825	 186.475
 3109	  0.2400	155.8750	 155.875	 186.535
 3110	  0.2400	155.9250	 155.925	 186.595
 3111	  0.2400	155.9750	 155.975	 186.655
 3112	  0.2200	156.0250	 156.025	 186.715
 3113	  0.2200	156.0750	 156.075	 186.775
 3114	  0.2200	156.1212	 156.121	 186.835
 3115	  0.2200	156.1725	 156.173	 186.895
 3116	  0.2200	156.2225	 156.223	 186.955
 3117	  0.2200	156.2737	 156.274	 187.015
 3118	  0.2200	156.3225	 156.322	 187.075
 3119	  0.2200	156.3725	 156.372	 187.135
 3120	  0.2200	156.4238	 156.424	 187.195
 3121	  0.2200	156.4737	 156.474	 187.255
 3122	  0.2200	156.5237	 156.524	 187.315
 3123	  0.2200	156.5737	 156.574	 187.375
 3124	  0.2200	156.6237	 156.624	 187.435
 3125	  0.2200	156.6738	 156.674	 187.495
 3126	  0.2200	156.7237	 156.724	 187.555
 3127	  0.2200	156.7750	 156.775	 187.615
 3128	  0.2200	156.8250	 156.825	 187.675
 3129	  0.2200	156.8750	 156.875	 187.735
 3130	  0.2200	156.9250	 156.925	 187.795
 3131	  0.2200	156.9750	 156.975	 187.855
 3132	  0.2200	157.0250	 157.025	 187.915
 3133	  0.2200	157.0762	 157.076	 187.975
 3134	  0.2200	157.1263	 157.126	 188.035
 3135	  0.2200	157.1750	 157.175	 188.095
 3136	  0.2200	157.2262	 157.226	 188.155
 3137	  0.2200	157.2762	 157.276	 188.215
 3138	  0.2200	157.3262	 157.326	 188.275
 3139	  0.2200	157.3763	 157.376	 188.335
 3140	  0.2200	157.4275	 157.427	 188.395
 3141	  0.2000	157.4750	 157.475	 188.455
 3142	  0.2000	157.5262	 157.526	 188.515
 3143	  0.2000	157.5762	 157.576	 188.575
 3144	  0.2000	157.6263	 157.626	 188.635
 3145	  0.2000	157.6775	 157.677	 188.695
 3146	  0.2000	157.7262	 157.726	 188.755
 3147	  0.2000	157.7775	 157.777	 188.815
 3148	  0.2000	157.8275	 157.827	 188.875
 3149	  0.2000	157.8788	 157.879	 188.935
 3150	  0.1800	157.9287	 157.929	 188.995
 3151	  0.1800	157.9787	 157.979	 189.055
 3152	  0.1800	158.0287	 158.029	 189.115
 3153	  0.1800	158.0788	 158.079	 189.175
 3154	  0.1800	158.1300	 158.130	 189.235
 3155	  0.1800	158.1800	 158.180	 189.295
 3156	  0.1800	158.2300	 158.230	 189.355
 3157	  0.1800	158.2800	 158.280	 189.415
 3158	  0.1800	158.3313	 158.331	 189.475
 3159	  0.1800	158.3812	 158.381	 189.535
 3160	  0.1800	158.4312	 158.431	 189.595
 3161	  0.1800	158.4812	 158.481	 189.655
 3162	  0.1800	158.5312	 158.531	 189.715
 3163	  0.1800	158.5825	 158.582	 189.775
 3164	  0.1800	158.6325	 158.632	 189.835
 3165	  0.1800	158.6837	 158.684	 189.895
 3166	  0.1800	158.7325	 158.732	 189.955
 3167	  0.1800	158.7838	 158.784	 190.015
 3168	  0.1800	158.8337	 158.834	 190.075
 3169	  0.1800	158.8837	 158.884	 190.135
 3170	  0.1800	158.9337	 158.934	 190.195
 3171	  0.1800	158.9837	 158.984	 190.255
 3172	  0.1800	159.0350	 159.035	 190.315
 3173	  0.1800	159.0850	 159.085	 190.375
 3174	  0.1800	159.1350	 159.135	 190.435
 3175	  0.1800	159.1850	 159.185	 190.495
 3176	  0.1800	159.2350	 159.235	 190.555
 3177	  0.1800	159.2850	 159.285	 190.615
 3178	  0.1800	159.3350	 159.335	 190.675
 3179	  0.1800	159.3850	 159.385	 190.735
 3180	  0.1600	159.4337	 159.434	 190.795
 3181	  0.1600	159.4850	 159.485	 190.855
 3182	  0.1600	159.5350	 159.535	 190.915
 3183	  0.1600	159.5850	 159.585	 190.975
 3184	  0.1600	159.6350	 159.635	 191.035
 3185	  0.1600	159.6850	 159.685	 191.095
 3186	  0.1600	159.7363	 159.736	 191.155
 3187	  0.1600	159.7850	 159.785	 191.215
 3188	  0.1600	159.8362	 159.836	 191.275
 3189	  0.1600	159.8862	 159.886	 191.335
 3190	  0.1600	159.9362	 159.936	 191.395
 3191	  0.1600	159.9863	 159.986	 191.455
 3192	  0.1600	160.0362	 160.036	 191.515
 3193	  0.1600	160.0862	 160.086	 191.575
 3194	  0.1600	160.1362	 160.136	 191.635
 3195	  0.1600	160.1875	 160.188	 191.695
 3196	  0.1600	160.2363	 160.236	 191.755
 3197	  0.1600	160.2862	 160.286	 191.815
 3198	  0.1600	160.3362	 160.336	 191.875
 3199	  0.1600	160.3862	 160.386	 191.935
 3200	  0.1600	160.4362	 160.436	 191.995
 3201	  0.1600	160.4863	 160.486	 192.055
 3202	  0.1600	160.5362	 160.536	 192.115
 3203	  0.1600	160.5862	 160.586	 192.175
 3204	  0.1600	160.6375	 160.637	 192.235
 3205	  0.1600	160.6875	 160.688	 192.295
 3206	  0.1600	160.7375	 160.738	 192.355
 3207	  0.1600	160.7875	 160.787	 192.415
 3208	  0.1400	160.8375	 160.837	 192.475
 3209	  0.1600	160.8875	 160.887	 192.535
 3210	  0.1400	160.9375	 160.938	 192.595
 3211	  0.1600	160.9887	 160.989	 192.655
 3212	  0.1400	161.0375	 161.037	 192.715
 3213	  0.1400	161.0887	 161.089	 192.775
 3214	  0.1400	161.1375	 161.137	 192.835
 3215	  0.1400	161.1888	 161.189	 192.895
 3216	  0.1400	161.2387	 161.239	 192.955
 3217	  0.1400	161.2887	 161.289	 193.015
 3218	  0.1400	161.3387	 161.339	 193.075
 3219	  0.1400	161.3887	 161.389	 193.135
 3220	  0.1400	161.4400	 161.440	 193.195
 3221	  0.1400	161.4887	 161.489	 193.255
 3222	  0.1400	161.5400	 161.540	 193.315
 3223	  0.1400	161.5900	 161.590	 193.375
 3224	  0.1400	161.6413	 161.641	 193.435
 3225	  0.1400	161.6900	 161.690	 193.495
 3226	  0.1400	161.7400	 161.740	 193.555
 3227	  0.1200	161.7900	 161.790	 193.615
 3228	  0.1200	161.8400	 161.840	 193.675
 3229	  0.1400	161.8913	 161.891	 193.735
 3230	  0.1400	161.9413	 161.941	 193.795
 3231	  0.1400	161.9912	 161.991	 193.855
 3232	  0.1400	162.0425	 162.042	 193.915
 3233	  0.1200	162.0925	 162.092	 193.975
 3234	  0.1400	162.1425	 162.143	 194.035
 3235	  0.1400	162.1925	 162.192	 194.095
 3236	  0.1200	162.2437	 162.244	 194.155
 3237	  0.1200	162.2937	 162.294	 194.215
 3238	  0.1200	162.3438	 162.344	 194.275
 3239	  0.1200	162.3938	 162.394	 194.335
 3240	  0.1200	162.4450	 162.445	 194.395
 3241	  0.1200	162.4950	 162.495	 194.455
 3242	  0.1200	162.5450	 162.545	 194.515
 3243	  0.1200	162.5950	 162.595	 194.575
 3244	  0.1200	162.6450	 162.645	 194.635
 3245	  0.1200	162.6950	 162.695	 194.695
 3246	  0.1200	162.7450	 162.745	 194.755
 3247	  0.1200	162.7962	 162.796	 194.815
 3248	  0.1200	162.8463	 162.846	 194.875
 3249	  0.1200	162.8962	 162.896	 194.935
 3250	  0.1200	162.9462	 162.946	 194.995
 3251	  0.1200	162.9962	 162.996	 195.055
 3252	  0.1200	163.0475	 163.048	 195.115
 3253	  0.1200	163.0975	 163.098	 195.175
 3254	  0.1200	163.1487	 163.149	 195.235
 3255	  0.1200	163.1975	 163.197	 195.295
 3256	  0.1200	163.2487	 163.249	 195.355
 3257	  0.1200	163.2988	 163.299	 195.415
 3258	  0.1200	163.3487	 163.349	 195.475
 3259	  0.1200	163.3987	 163.399	 195.535
 3260	  0.1200	163.4487	 163.449	 195.595
 3261	  0.1200	163.4987	 163.499	 195.655
 3262	  0.1200	163.5488	 163.549	 195.715
 3263	  0.1200	163.6000	 163.600	 195.775
 3264	  0.1200	163.6500	 163.650	 195.835
 3265	  0.1200	163.7000	 163.700	 195.895
 3266	  0.1200	163.7500	 163.750	 195.955
 3267	  0.1200	163.8012	 163.801	 196.015
 3268	  0.1200	163.8500	 163.850	 196.075
 3269	  0.1200	163.9000	 163.900	 196.135
 3270	  0.1200	163.9512	 163.951	 196.195
 3271	  0.1200	164.0013	 164.001	 196.255
 3272	  0.1200	164.0512	 164.051	 196.315
 3273	  0.1200	164.1012	 164.101	 196.375
 3274	  0.1200	164.1512	 164.151	 196.435
 3275	  0.1200	164.2012	 164.201	 196.495
 3276	  0.1200	164.2513	 164.251	 196.555
 3277	  0.1200	164.3012	 164.301	 196.615
 3278	  0.1200	164.3512	 164.351	 196.675
 3279	  0.1200	164.4025	 164.402	 196.735
 3280	  0.1000	164.4512	 164.451	 196.795
 3281	  0.1200	164.5025	 164.503	 196.855
 3282	  0.1200	164.5512	 164.551	 196.915
 3283	  0.1200	164.6025	 164.602	 196.975
 3284	  0.1000	164.6512	 164.651	 197.035
 3285	  0.1000	164.7012	 164.701	 197.095
 3286	  0.1000	164.7513	 164.751	 197.155
 3287	  0.1000	164.8012	 164.801	 197.215
 3288	  0.1000	164.8525	 164.852	 197.275
 3289	  0.1000	164.9012	 164.901	 197.335
 3290	  0.1000	164.9525	 164.952	 197.395
 3291	  0.1000	165.0025	 165.003	 197.455
 3292	  0.1000	165.0525	 165.052	 197.515
 3293	  0.1000	165.1025	 165.102	 197.575
 3294	  0.1000	165.1525	 165.152	 197.635
 3295	  0.1000	165.2038	 165.204	 197.695
 3296	  0.1000	165.2525	 165.253	 197.755
 3297	  0.1000	165.3037	 165.304	 197.815
 3298	  0.1000	165.3537	 165.354	 197.875
 3299	  0.1000	165.4037	 165.404	 197.935
 3300	  0.1000	165.4538	 165.454	 197.995
 3301	  0.1000	165.5038	 165.504	 198.055
 3302	  0.1000	165.5537	 165.554	 198.115
 3303	  0.1000	165.6037	 165.604	 198.175
 3304	  0.1000	165.6550	 165.655	 198.235
 3305	  0.1000	165.7050	 165.705	 198.295
 3306	  0.1000	165.7550	 165.755	 198.355
 3307	  0.1000	165.8050	 165.805	 198.415
 3308	  0.1000	165.8550	 165.855	 198.475
 3309	  0.1000	165.9050	 165.905	 198.535
 3310	  0.1000	165.9550	 165.955	 198.595
 3311	  0.1000	166.0062	 166.006	 198.655
 3312	  0.1000	166.0562	 166.056	 198.715
 3313	  0.1000	166.1075	 166.107	 198.775
 3314	  0.1000	166.1575	 166.158	 198.835
 3315	  0.1000	166.2075	 166.207	 198.895
 3316	  0.1000	166.2575	 166.257	 198.955
 3317	  0.1000	166.3062	 166.306	 199.015
 3318	  0.1000	166.3562	 166.356	 199.075
 3319	  0.1000	166.4062	 166.406	 199.135
 3320	  0.1000	166.4575	 166.457	 199.195
 3321	  0.1000	166.5075	 166.507	 199.255
 3322	  0.1000	166.5575	 166.557	 199.315
 3323	  0.1000	166.6075	 166.607	 199.375
 3324	  0.1000	166.6588	 166.659	 199.435
 3325	  0.1000	166.7087	 166.709	 199.495
 3326	  0.1000	166.7587	 166.759	 199.555
 3327	  0.1000	166.8087	 166.809	 199.615
 3328	  0.1000	166.8587	 166.859	 199.675
 3329	  0.1000	166.9100	 166.910	 199.735
 3330	  0.1000	166.9600	 166.960	 199.795
 3331	  0.1000	167.0100	 167.010	 199.855
 3332	  0.1000	167.0600	 167.060	 199.915
 3333	  0.1000	167.1113	 167.111	 199.975
 3334	  0.1000	167.1612	 167.161	 200.035
 3335	  0.1000	167.2112	 167.211	 200.095
 3336	  0.1000	167.2612	 167.261	 200.155
 3337	  0.1000	167.3112	 167.311	 200.215
 3338	  0.0800	167.3613	 167.361	 200.275
 3339	  0.1000	167.4112	 167.411	 200.335
 3340	  0.0800	167.4612	 167.461	 200.395
 3341	  0.1000	167.5112	 167.511	 200.455
 3342	  0.1000	167.5612	 167.561	 200.515
 3343	  0.1000	167.6113	 167.611	 200.575
 3344	  0.1000	167.6612	 167.661	 200.635
 3345	  0.1000	167.7112	 167.711	 200.695
 3346	  0.1000	167.7612	 167.761	 200.755
 3347	  0.1000	167.8125	 167.812	 200.815
 3348	  0.1000	167.8613	 167.861	 200.875
 3349	  0.1000	167.9125	 167.912	 200.935
 3350	  0.0800	167.9625	 167.962	 200.995
 3351	  0.1000	168.0125	 168.012	 201.055
 3352	  0.1000	168.0612	 168.061	 201.115
 3353	  0.1000	168.1113	 168.111	 201.175
 3354	  0.0800	168.1612	 168.161	 201.235
 3355	  0.1000	168.2112	 168.211	 201.295
 3356	  0.0800	168.2625	 168.262	 201.355
 3357	  0.0800	168.3125	 168.312	 201.415
 3358	  0.0800	168.3625	 168.363	 201.475
 3359	  0.0800	168.4125	 168.412	 201.535
 3360	  0.0800	168.4625	 168.462	 201.595
 3361	  0.0800	168.5125	 168.512	 201.655
 3362	  0.0800	168.5625	 168.562	 201.715
 3363	  0.0800	168.6125	 168.613	 201.775
 3364	  0.0800	168.6612	 168.661	 201.835
 3365	  0.0800	168.7125	 168.712	 201.895
 3366	  0.0800	168.7625	 168.762	 201.955
 3367	  0.0800	168.8125	 168.812	 202.015
 3368	  0.0800	168.8625	 168.863	 202.075
 3369	  0.0800	168.9112	 168.911	 202.135
 3370	  0.0800	168.9625	 168.962	 202.195
 3371	  0.0800	169.0125	 169.012	 202.255
 3372	  0.0800	169.0625	 169.062	 202.315
 3373	  0.0800	169.1125	 169.113	 202.375
 3374	  0.0800	169.1637	 169.164	 202.435
 3375	  0.1000	169.2137	 169.214	 202.495
 3376	  0.0800	169.2637	 169.264	 202.555
 3377	  0.0800	169.3138	 169.314	 202.615
 3378	  0.0800	169.3637	 169.364	 202.675
 3379	  0.0800	169.4137	 169.414	 202.735
 3380	  0.0800	169.4625	 169.462	 202.795
 3381	  0.0800	169.5137	 169.514	 202.855
 3382	  0.0800	169.5638	 169.564	 202.915
 3383	  0.0800	169.6137	 169.614	 202.975
 3384	  0.0800	169.6637	 169.664	 203.035
 3385	  0.0800	169.7137	 169.714	 203.095
 3386	  0.0800	169.7650	 169.765	 203.155
 3387	  0.0800	169.8138	 169.814	 203.215
 3388	  0.0800	169.8650	 169.865	 203.275
 3389	  0.0800	169.9150	 169.915	 203.335
 3390	  0.0800	169.9650	 169.965	 203.395
 3391	  0.0800	170.0150	 170.015	 203.455
 3392	  0.0800	170.0650	 170.065	 203.515
 3393	  0.0800	170.1150	 170.115	 203.575
 3394	  0.0800	170.1650	 170.165	 203.635
 3395	  0.0800	170.2162	 170.216	 203.695
 3396	  0.0800	170.2663	 170.266	 203.755
 3397	  0.0800	170.3163	 170.316	 203.815
 3398	  0.0800	170.3662	 170.366	 203.875
 3399	  0.0800	170.4175	 170.417	 203.935
 3400	  0.0800	170.4675	 170.467	 203.995
 3401	  0.0800	170.5175	 170.518	 204.055
 3402	  0.0800	170.5675	 170.567	 204.115
 3403	  0.0800	170.6175	 170.617	 204.175
 3404	  0.0800	170.6675	 170.667	 204.235
 3405	  0.0800	170.7175	 170.717	 204.295
 3406	  0.0800	170.7688	 170.769	 204.355
 3407	  0.0800	170.8187	 170.819	 204.415
 3408	  0.0800	170.8687	 170.869	 204.475
 3409	  0.0800	170.9187	 170.919	 204.535
 3410	  0.0800	170.9688	 170.969	 204.595
 3411	  0.0800	171.0188	 171.019	 204.655
 3412	  0.0800	171.0687	 171.069	 204.715
 3413	  0.0800	171.1200	 171.120	 204.775
 3414	  0.0800	171.1700	 171.170	 204.835
 3415	  0.0800	171.2200	 171.220	 204.895
 3416	  0.0800	171.2700	 171.270	 204.955
 3417	  0.0800	171.3212	 171.321	 205.015
 3418	  0.0800	171.3712	 171.371	 205.075
 3419	  0.0800	171.4212	 171.421	 205.135
 3420	  0.0800	171.4713	 171.471	 205.195
 3421	  0.0800	171.5212	 171.521	 205.255
 3422	  0.0800	171.5725	 171.572	 205.315
 3423	  0.0800	171.6225	 171.622	 205.375
 3424	  0.0800	171.6725	 171.673	 205.435
 3425	  0.0800	171.7213	 171.721	 205.495
 3426	  0.0800	171.7712	 171.771	 205.555
 3427	  0.0800	171.8175	 171.817	 205.615
 3428	  0.0800	171.8675	 171.867	 205.675
 3429	  0.0800	171.9175	 171.917	 205.735
 3430	  0.0800	171.9675	 171.967	 205.795
 3431	  0.0800	172.0175	 172.018	 205.855
 3432	  0.0800	172.0675	 172.067	 205.915
 3433	  0.0800	172.1187	 172.119	 205.975
 3434	  0.0800	172.1675	 172.167	 206.035
 3435	  0.0800	172.2175	 172.217	 206.095
 3436	  0.0800	172.2688	 172.269	 206.155
 3437	  0.0800	172.3175	 172.317	 206.215
 3438	  0.0800	172.3687	 172.369	 206.275
 3439	  0.0800	172.4187	 172.419	 206.335
 3440	  0.0800	172.4688	 172.469	 206.395
 3441	  0.0800	172.5188	 172.519	 206.455
 3442	  0.0800	172.5700	 172.570	 206.515
 3443	  0.0800	172.6200	 172.620	 206.575
 3444	  0.0800	172.6687	 172.669	 206.635
 3445	  0.0800	172.7200	 172.720	 206.695
 3446	  0.0800	172.7688	 172.769	 206.755
 3447	  0.0800	172.8200	 172.820	 206.815
 3448	  0.0800	172.8687	 172.869	 206.875
 3449	  0.0800	172.9200	 172.920	 206.935
 3450	  0.0800	172.9700	 172.970	 206.995
 3451	  0.0800	173.0188	 173.019	 207.055
 3452	  0.0800	173.0700	 173.070	 207.115
 3453	  0.0800	173.1187	 173.119	 207.175
 3454	  0.0800	173.1700	 173.170	 207.235
 3455	  0.0800	173.2200	 173.220	 207.295
 3456	  0.0800	173.2700	 173.270	 207.355
 3457	  0.0800	173.3200	 173.320	 207.415
 3458	  0.0800	173.3712	 173.371	 207.475
 3459	  0.0800	173.4212	 173.421	 207.535
 3460	  0.0800	173.4713	 173.471	 207.595
 3461	  0.0800	173.5212	 173.521	 207.655
 3462	  0.0800	173.5712	 173.571	 207.715
 3463	  0.0800	173.6212	 173.621	 207.775
 3464	  0.0800	173.6712	 173.671	 207.835
 3465	  0.0800	173.7225	 173.723	 207.895
 3466	  0.0800	173.7725	 173.772	 207.955
 3467	  0.0800	173.8225	 173.822	 208.015
 3468	  0.0800	173.8725	 173.872	 208.075
 3469	  0.0800	173.9225	 173.923	 208.135
 3470	  0.0800	173.9725	 173.973	 208.195
 3471	  0.0800	174.0225	 174.022	 208.255
 3472	  0.0800	174.0737	 174.074	 208.315
 3473	  0.0800	174.1225	 174.122	 208.375
 3474	  0.0800	174.1738	 174.174	 208.435
 3475	  0.0800	174.2237	 174.224	 208.495
 3476	  0.0800	174.2737	 174.274	 208.555
 3477	  0.0800	174.3237	 174.324	 208.615
 3478	  0.0800	174.3737	 174.374	 208.675
 3479	  0.0800	174.4250	 174.425	 208.735
 3480	  0.0800	174.4750	 174.475	 208.795
 3481	  0.0800	174.5262	 174.526	 208.855
 3482	  0.0800	174.5762	 174.576	 208.915
 3483	  0.0800	174.6263	 174.626	 208.975
 3484	  0.0800	174.6762	 174.676	 209.035
 3485	  0.0800	174.7262	 174.726	 209.095
 3486	  0.0800	174.7775	 174.777	 209.155
 3487	  0.0800	174.8275	 174.827	 209.215
 3488	  0.0800	174.8763	 174.876	 209.275
 3489	  0.0800	174.9262	 174.926	 209.335
 3490	  0.0800	174.9775	 174.977	 209.395
 3491	  0.0800	175.0275	 175.027	 209.455
 3492	  0.0600	175.0788	 175.079	 209.515
 3493	  0.0800	175.1288	 175.129	 209.575
 3494	  0.0600	175.1775	 175.177	 209.635
 3495	  0.0800	175.2287	 175.229	 209.695
 3496	  0.0800	175.2787	 175.279	 209.755
 3497	  0.0800	175.3300	 175.330	 209.815
 3498	  0.0800	175.3800	 175.380	 209.875
 3499	  0.0600	175.4300	 175.430	 209.935
 3500	  0.0600	175.4800	 175.480	 209.995
 3501	  0.0600	175.5300	 175.530	 210.055
 3502	  0.0800	175.5813	 175.581	 210.115
 3503	  0.0600	175.6312	 175.631	 210.175
 3504	  0.0800	175.6812	 175.681	 210.235
 3505	  0.0800	175.7312	 175.731	 210.295
 3506	  0.0800	175.7825	 175.783	 210.355
 3507	  0.0600	175.8325	 175.832	 210.415
 3508	  0.0600	175.8825	 175.882	 210.475
 3509	  0.0800	175.9312	 175.931	 210.535
 3510	  0.0800	175.9812	 175.981	 210.595
 3511	  0.0800	176.0325	 176.033	 210.655
 3512	  0.0600	176.0825	 176.082	 210.715
 3513	  0.0600	176.1325	 176.132	 210.775
 3514	  0.0600	176.1825	 176.182	 210.835
 3515	  0.0600	176.2325	 176.232	 210.895
 3516	  0.0800	176.2825	 176.283	 210.955
 3517	  0.0600	176.3337	 176.334	 211.015
 3518	  0.0800	176.3837	 176.384	 211.075
 3519	  0.0600	176.4325	 176.432	 211.135
 3520	  0.0600	176.4825	 176.482	 211.195
 3521	  0.0800	176.5312	 176.531	 211.255
 3522	  0.0800	176.5825	 176.582	 211.315
 3523	  0.0600	176.6325	 176.632	 211.375
 3524	  0.0600	176.6825	 176.682	 211.435
 3525	  0.0600	176.7325	 176.732	 211.495
 3526	  0.0600	176.7825	 176.783	 211.555
 3527	  0.0600	176.8325	 176.832	 211.615
 3528	  0.0600	176.8825	 176.882	 211.675
 3529	  0.0600	176.9337	 176.934	 211.735
 3530	  0.0600	176.9825	 176.982	 211.795
 3531	  0.0600	177.0338	 177.034	 211.855
 3532	  0.0600	177.0837	 177.084	 211.915
 3533	  0.0600	177.1312	 177.131	 211.975
 3534	  0.0600	177.1812	 177.181	 212.035
 3535	  0.0600	177.2312	 177.231	 212.095
 3536	  0.0600	177.2825	 177.283	 212.155
 3537	  0.0600	177.3313	 177.331	 212.215
 3538	  0.0600	177.3825	 177.382	 212.275
 3539	  0.0800	177.4325	 177.432	 212.335
 3540	  0.0600	177.4825	 177.482	 212.395
 3541	  0.0600	177.5325	 177.533	 212.455
 3542	  0.0600	177.5837	 177.584	 212.515
 3543	  0.0600	177.6337	 177.634	 212.575
 3544	  0.0600	177.6837	 177.684	 212.635
 3545	  0.0600	177.7337	 177.734	 212.695
 3546	  0.0600	177.7838	 177.784	 212.755
 3547	  0.0600	177.8350	 177.835	 212.815
 3548	  0.0600	177.8837	 177.884	 212.875
 3549	  0.0600	177.9350	 177.935	 212.935
 3550	  0.0600	177.9850	 177.985	 212.995
 3551	  0.0600	178.0338	 178.034	 213.055
 3552	  0.0600	178.0837	 178.084	 213.115
 3553	  0.0600	178.1337	 178.134	 213.175
 3554	  0.0600	178.1837	 178.184	 213.235
 3555	  0.0600	178.2337	 178.234	 213.295
 3556	  0.0600	178.2850	 178.285	 213.355
 3557	  0.0600	178.3350	 178.335	 213.415
 3558	  0.0600	178.3850	 178.385	 213.475
 3559	  0.0600	178.4350	 178.435	 213.535
 3560	  0.0600	178.4850	 178.485	 213.595
 3561	  0.0600	178.5362	 178.536	 213.655
 3562	  0.0600	178.5862	 178.586	 213.715
 3563	  0.0600	178.6362	 178.636	 213.775
 3564	  0.0600	178.6862	 178.686	 213.835
 3565	  0.0600	178.7375	 178.738	 213.895
 3566	  0.0600	178.7875	 178.787	 213.955
 3567	  0.0600	178.8387	 178.839	 214.015
 3568	  0.0600	178.8875	 178.887	 214.075
 3569	  0.0600	178.9375	 178.938	 214.135
 3570	  0.0600	178.9887	 178.989	 214.195
 3571	  0.0600	179.0387	 179.039	 214.255
 3572	  0.0600	179.0887	 179.089	 214.315
 3573	  0.0600	179.1387	 179.139	 214.375
 3574	  0.0600	179.1900	 179.190	 214.435
 3575	  0.0600	179.2387	 179.239	 214.495
 3576	  0.0600	179.2887	 179.289	 214.555
 3577	  0.0600	179.3400	 179.340	 214.615
 3578	  0.0600	179.3900	 179.390	 214.675
 3579	  0.0600	179.4388	 179.439	 214.735
 3580	  0.0600	179.4887	 179.489	 214.795
 3581	  0.0600	179.5400	 179.540	 214.855
 3582	  0.0600	179.5900	 179.590	 214.915
 3583	  0.0600	179.6400	 179.640	 214.975
 3584	  0.0600	179.6900	 179.690	 215.035
 3585	  0.0600	179.7400	 179.740	 215.095
 3586	  0.0600	179.7912	 179.791	 215.155
 3587	  0.0600	179.8412	 179.841	 215.215
 3588	  0.0600	179.8913	 179.891	 215.275
 3589	  0.0600	179.9412	 179.941	 215.335
 3590	  0.0600	179.9912	 179.991	 215.395
 3591	  0.0600	180.0412	 180.041	 215.455
 3592	  0.0600	180.0925	 180.092	 215.515
 3593	  0.0600	180.1413	 180.141	 215.575
 3594	  0.0600	180.1912	 180.191	 215.635
 3595	  0.0600	180.2412	 180.241	 215.695
 3596	  0.0600	180.2912	 180.291	 215.755
 3597	  0.0600	180.3425	 180.342	 215.815
 3598	  0.0600	180.3925	 180.393	 215.875
 3599	  0.0600	180.4425	 180.442	 215.935
 3600	  0.0600	180.4925	 180.492	 215.995
 3601	  0.0600	180.5425	 180.542	 216.055
 3602	  0.0600	180.5925	 180.592	 216.115
 3603	  0.0600	180.6425	 180.643	 216.175
 3604	  0.0600	180.6925	 180.692	 216.235
 3605	  0.0600	180.7425	 180.742	 216.295
 3606	  0.0600	180.7937	 180.794	 216.355
 3607	  0.0600	180.8425	 180.842	 216.415
 3608	  0.0600	180.8938	 180.894	 216.475
 3609	  0.0600	180.9437	 180.944	 216.535
 3610	  0.0600	180.9925	 180.992	 216.595
 3611	  0.0600	181.0437	 181.044	 216.655
 3612	  0.0600	181.0938	 181.094	 216.715
 3613	  0.0600	181.1438	 181.144	 216.775
 3614	  0.0600	181.1937	 181.194	 216.835
 3615	  0.0600	181.2437	 181.244	 216.895
 3616	  0.0600	181.2937	 181.294	 216.955
 3617	  0.0600	181.3438	 181.344	 217.015
 3618	  0.0600	181.3938	 181.394	 217.075
 3619	  0.0600	181.4437	 181.444	 217.135
 3620	  0.0600	181.4937	 181.494	 217.195
 3621	  0.0600	181.5437	 181.544	 217.255
 3622	  0.0600	181.5938	 181.594	 217.315
 3623	  0.0600	181.6438	 181.644	 217.375
 3624	  0.0600	181.6950	 181.695	 217.435
 3625	  0.0600	181.7437	 181.744	 217.495
 3626	  0.0600	181.7937	 181.794	 217.555
 3627	  0.0600	181.8450	 181.845	 217.615
 3628	  0.0600	181.8950	 181.895	 217.675
 3629	  0.0600	181.9450	 181.945	 217.735
 3630	  0.0600	181.9950	 181.995	 217.795
 3631	  0.0600	182.0462	 182.046	 217.855
 3632	  0.0400	182.0963	 182.096	 217.915
 3633	  0.0600	182.1462	 182.146	 217.975
 3634	  0.0600	182.1962	 182.196	 218.035
 3635	  0.0600	182.2462	 182.246	 218.095
 3636	  0.0400	182.2962	 182.296	 218.155
 3637	  0.0600	182.3463	 182.346	 218.215
 3638	  0.0600	182.3962	 182.396	 218.275
 3639	  0.0600	182.4462	 182.446	 218.335
 3640	  0.0600	182.4975	 182.497	 218.395
 3641	  0.0400	182.5462	 182.546	 218.455
 3642	  0.0600	182.5975	 182.597	 218.515
 3643	  0.0600	182.6475	 182.647	 218.575
 3644	  0.0600	182.6975	 182.697	 218.635
 3645	  0.0400	182.7487	 182.749	 218.695
 3646	  0.0600	182.7975	 182.798	 218.755
 3647	  0.0400	182.8487	 182.849	 218.815
 3648	  0.0600	182.8987	 182.899	 218.875
 3649	  0.0600	182.9500	 182.950	 218.935
 3650	  0.0400	183.0000	 183.000	 218.995
 3651	  0.0400	183.0488	 183.049	 219.055
 3652	  0.0400	183.1000	 183.100	 219.115
 3653	  0.0600	183.1500	 183.150	 219.175
 3654	  0.0400	183.2000	 183.200	 219.235
 3655	  0.0400	183.2513	 183.251	 219.295
 3656	  0.0600	183.3012	 183.301	 219.355
 3657	  0.0400	183.3512	 183.351	 219.415
 3658	  0.0400	183.4012	 183.401	 219.475
 3659	  0.0400	183.4512	 183.451	 219.535
 3660	  0.0600	183.5013	 183.501	 219.595
 3661	  0.0400	183.5525	 183.552	 219.655
 3662	  0.0400	183.6025	 183.602	 219.715
 3663	  0.0400	183.6525	 183.652	 219.775
 3664	  0.0400	183.7025	 183.702	 219.835
 3665	  0.0400	183.7537	 183.754	 219.895
 3666	  0.0400	183.8037	 183.804	 219.955
 3667	  0.0400	183.8537	 183.854	 220.015
 3668	  0.0400	183.9037	 183.904	 220.075
 3669	  0.0400	183.9538	 183.954	 220.135
 3670	  0.0400	184.0050	 184.005	 220.195
 3671	  0.0400	184.0550	 184.055	 220.255
 3672	  0.0400	184.1050	 184.105	 220.315
 3673	  0.0400	184.1550	 184.155	 220.375
 3674	  0.0400	184.2063	 184.206	 220.435
 3675	  0.0400	184.2550	 184.255	 220.495
 3676	  0.0400	184.3050	 184.305	 220.555
 3677	  0.0600	184.3562	 184.356	 220.615
 3678	  0.0600	184.4062	 184.406	 220.675
 3679	  0.0600	184.4563	 184.456	 220.735
 3680	  0.0600	184.5062	 184.506	 220.795
 3681	  0.0600	184.5562	 184.556	 220.855
 3682	  0.0600	184.6075	 184.607	 220.915
 3683	  0.0600	184.6575	 184.658	 220.975
 3684	  0.0600	184.7075	 184.707	 221.035
 3685	  0.0600	184.7575	 184.757	 221.095
 3686	  0.0600	184.8075	 184.807	 221.155
 3687	  0.0600	184.8575	 184.857	 221.215
 3688	  0.0600	184.9075	 184.908	 221.275
 3689	  0.0600	184.9575	 184.957	 221.335
 3690	  0.0600	185.0087	 185.009	 221.395
 3691	  0.0600	185.0587	 185.059	 221.455
 3692	  0.0600	185.1087	 185.109	 221.515
 3693	  0.0600	185.1588	 185.159	 221.575
 3694	  0.0600	185.2087	 185.209	 221.635
 3695	  0.0600	185.2587	 185.259	 221.695
 3696	  0.0600	185.3087	 185.309	 221.755
 3697	  0.0600	185.3575	 185.357	 221.815
 3698	  0.0600	185.4075	 185.408	 221.875
 3699	  0.0600	185.4575	 185.457	 221.935
 3700	  0.0600	185.5075	 185.507	 221.995
 3701	  0.0600	185.5575	 185.557	 222.055
 3702	  0.0600	185.6075	 185.607	 222.115
 3703	  0.0600	185.6575	 185.658	 222.175
 3704	  0.0600	185.7075	 185.707	 222.235
 3705	  0.0600	185.7575	 185.757	 222.295
 3706	  0.0600	185.8087	 185.809	 222.355
 3707	  0.0600	185.8587	 185.859	 222.415
 3708	  0.0600	185.9100	 185.910	 222.475
 3709	  0.0600	185.9587	 185.959	 222.535
 3710	  0.0600	186.0087	 186.009	 222.595
 3711	  0.0600	186.0600	 186.060	 222.655
 3712	  0.0600	186.1100	 186.110	 222.715
 3713	  0.0600	186.1600	 186.160	 222.775
 3714	  0.0600	186.2100	 186.210	 222.835
 3715	  0.0600	186.2600	 186.260	 222.895
 3716	  0.0600	186.3100	 186.310	 222.955
 3717	  0.0600	186.3613	 186.361	 223.015
 3718	  0.0600	186.4112	 186.411	 223.075
 3719	  0.0600	186.4612	 186.461	 223.135
 3720	  0.0600	186.5112	 186.511	 223.195
 3721	  0.0600	186.5587	 186.559	 223.255
 3722	  0.0600	186.6087	 186.609	 223.315
 3723	  0.0600	186.6588	 186.659	 223.375
 3724	  0.0600	186.7100	 186.710	 223.435
 3725	  0.0600	186.7600	 186.760	 223.495
 3726	  0.0600	186.8087	 186.809	 223.555
 3727	  0.0600	186.8600	 186.860	 223.615
 3728	  0.0600	186.9100	 186.910	 223.675
 3729	  0.0600	186.9600	 186.960	 223.735
 3730	  0.0600	187.0100	 187.010	 223.795
 3731	  0.0600	187.0612	 187.061	 223.855
 3732	  0.0600	187.1113	 187.111	 223.915
 3733	  0.0600	187.1625	 187.162	 223.975
 3734	  0.0600	187.2112	 187.211	 224.035
 3735	  0.0600	187.2612	 187.261	 224.095
 3736	  0.0600	187.3125	 187.312	 224.155
 3737	  0.0600	187.3625	 187.363	 224.215
 3738	  0.0600	187.4125	 187.412	 224.275
 3739	  0.0600	187.4612	 187.461	 224.335
 3740	  0.0600	187.5125	 187.512	 224.395
 3741	  0.0600	187.5625	 187.562	 224.455
 3742	  0.0600	187.6137	 187.614	 224.515
 3743	  0.0600	187.6625	 187.662	 224.575
 3744	  0.0600	187.7125	 187.712	 224.635
 3745	  0.0600	187.7637	 187.764	 224.695
 3746	  0.0600	187.8138	 187.814	 224.755
 3747	  0.0600	187.8637	 187.864	 224.815
 3748	  0.0600	187.9137	 187.914	 224.875
 3749	  0.0600	187.9650	 187.965	 224.935
 3750	  0.0600	188.0150	 188.015	 224.995
 3751	  0.0600	188.0650	 188.065	 225.055
 3752	  0.0600	188.1150	 188.115	 225.115
 3753	  0.0600	188.1650	 188.165	 225.175
 3754	  0.0600	188.2150	 188.215	 225.235
 3755	  0.0600	188.2650	 188.265	 225.295
 3756	  0.0600	188.3162	 188.316	 225.355
 3757	  0.0600	188.3650	 188.365	 225.415
 3758	  0.0600	188.4162	 188.416	 225.475
 3759	  0.0600	188.4650	 188.465	 225.535
 3760	  0.0600	188.5150	 188.515	 225.595
 3761	  0.0600	188.5662	 188.566	 225.655
 3762	  0.0600	188.6162	 188.616	 225.715
 3763	  0.0600	188.6662	 188.666	 225.775
 3764	  0.0600	188.7162	 188.716	 225.835
 3765	  0.0600	188.7663	 188.766	 225.895
 3766	  0.0600	188.8162	 188.816	 225.955
 3767	  0.0600	188.8675	 188.867	 226.015
 3768	  0.0600	188.9162	 188.916	 226.075
 3769	  0.0600	188.9662	 188.966	 226.135
 3770	  0.0600	189.0175	 189.018	 226.195
 3771	  0.0600	189.0662	 189.066	 226.255
2009-1-20 
Polimero 
amostra 20mm/min 
25 
18.00 
1 
3 
???
???
???
???
25.56 
???
???
???
???
???
0.46 
???
1 
6 
6 
